PE UV       SUBTECH     SPECTRUM    ASCII       PEDS        4.00        
   -1
Sample4775.Sample.asc
23/08/24
02:32:58.00
23/08/24
02:32:58.00
Analyst

350,000000
1
Lambda 850
850N4111301
PerkinElmer UV WinLab 6.4.0.971 / 1.61.00 Lambda 800

0
0
2
0
0
VIS
1
1
1
RBeamAtt,SBeamAtt,150mm sphere / downward view
0
0
0
0
Fix
 
0
0,2
0
30
0
 
 
 
0
 
0
150
0
Front
100
 
S:100 R:100
 
0
0
0
 
0
 
 
 
0
 
 
0
0
0
0
0
 
 
 
 
0
0


0
0
#HDR
-1
-1
#GR
nm
EGY
1.0
0.0
800,000000
-1,000000
451
8
0,317100
0,002200
#DATA
800,000000	0,034400
799,000000	0,035800
798,000000	0,037000
797,000000	0,036400
796,000000	0,037600
795,000000	0,038200
794,000000	0,038900
793,000000	0,037200
792,000000	0,040300
791,000000	0,038800
790,000000	0,040100
789,000000	0,041900
788,000000	0,043200
787,000000	0,040400
786,000000	0,042200
785,000000	0,042700
784,000000	0,043200
783,000000	0,043000
782,000000	0,045000
781,000000	0,044700
780,000000	0,045400
779,000000	0,043600
778,000000	0,046200
777,000000	0,046700
776,000000	0,046400
775,000000	0,047000
774,000000	0,049200
773,000000	0,046900
772,000000	0,050700
771,000000	0,051300
770,000000	0,049900
769,000000	0,050700
768,000000	0,053600
767,000000	0,050800
766,000000	0,052300
765,000000	0,053800
764,000000	0,054300
763,000000	0,053900
762,000000	0,055200
761,000000	0,054800
760,000000	0,055700
759,000000	0,056600
758,000000	0,058500
757,000000	0,057500
756,000000	0,058000
755,000000	0,060600
754,000000	0,061300
753,000000	0,060800
752,000000	0,062800
751,000000	0,063600
750,000000	0,062400
749,000000	0,063100
748,000000	0,065900
747,000000	0,066400
746,000000	0,066600
745,000000	0,067000
744,000000	0,068300
743,000000	0,068100
742,000000	0,069900
741,000000	0,071800
740,000000	0,071500
739,000000	0,072300
738,000000	0,074100
737,000000	0,074300
736,000000	0,075400
735,000000	0,077300
734,000000	0,079100
733,000000	0,079200
732,000000	0,078300
731,000000	0,080400
730,000000	0,083300
729,000000	0,083400
728,000000	0,084700
727,000000	0,086600
726,000000	0,086500
725,000000	0,088500
724,000000	0,091200
723,000000	0,091500
722,000000	0,092400
721,000000	0,093600
720,000000	0,094000
719,000000	0,094500
718,000000	0,099000
717,000000	0,100800
716,000000	0,100800
715,000000	0,101300
714,000000	0,103100
713,000000	0,104700
712,000000	0,107300
711,000000	0,108700
710,000000	0,109700
709,000000	0,109900
708,000000	0,110100
707,000000	0,112200
706,000000	0,114700
705,000000	0,116000
704,000000	0,117500
703,000000	0,118300
702,000000	0,118400
701,000000	0,120600
700,000000	0,122900
699,000000	0,122900
698,000000	0,123900
697,000000	0,125600
696,000000	0,125900
695,000000	0,126700
694,000000	0,130000
693,000000	0,131200
692,000000	0,131200
691,000000	0,131900
690,000000	0,136300
689,000000	0,142900
688,000000	0,144900
687,000000	0,146700
686,000000	0,149600
685,000000	0,153000
684,000000	0,154200
683,000000	0,155700
682,000000	0,157900
681,000000	0,160000
680,000000	0,163100
679,000000	0,166800
678,000000	0,168000
677,000000	0,168200
676,000000	0,170200
675,000000	0,172900
674,000000	0,174400
673,000000	0,177200
672,000000	0,180200
671,000000	0,180700
670,000000	0,180500
669,000000	0,182700
668,000000	0,185100
667,000000	0,188200
666,000000	0,190900
665,000000	0,191700
664,000000	0,191900
663,000000	0,194500
662,000000	0,197700
661,000000	0,201300
660,000000	0,203000
659,000000	0,204400
658,000000	0,205300
657,000000	0,206300
656,000000	0,209200
655,000000	0,213800
654,000000	0,215600
653,000000	0,215200
652,000000	0,216500
651,000000	0,218900
650,000000	0,221200
649,000000	0,225400
648,000000	0,227800
647,000000	0,227300
646,000000	0,228800
645,000000	0,231800
644,000000	0,233700
643,000000	0,236400
642,000000	0,240300
641,000000	0,240900
640,000000	0,240400
639,000000	0,242800
638,000000	0,246900
637,000000	0,249900
636,000000	0,251500
635,000000	0,251800
634,000000	0,253100
633,000000	0,254400
632,000000	0,257500
631,000000	0,261000
630,000000	0,262600
629,000000	0,263200
628,000000	0,264800
627,000000	0,266700
626,000000	0,269700
625,000000	0,273200
624,000000	0,274600
623,000000	0,272900
622,000000	0,274400
621,000000	0,277700
620,000000	0,280500
619,000000	0,282600
618,000000	0,284300
617,000000	0,284000
616,000000	0,284600
615,000000	0,286900
614,000000	0,290200
613,000000	0,291800
612,000000	0,293700
611,000000	0,293900
610,000000	0,293500
609,000000	0,295200
608,000000	0,299700
607,000000	0,300700
606,000000	0,300200
605,000000	0,300100
604,000000	0,301100
603,000000	0,302400
602,000000	0,305800
601,000000	0,307700
600,000000	0,308400
599,000000	0,307700
598,000000	0,307200
597,000000	0,309900
596,000000	0,310700
595,000000	0,312300
594,000000	0,313900
593,000000	0,312300
592,000000	0,311700
591,000000	0,313800
590,000000	0,315400
589,000000	0,315100
588,000000	0,316500
587,000000	0,316800
586,000000	0,314400
585,000000	0,316900
584,000000	0,316900
583,000000	0,317100
582,000000	0,316800
581,000000	0,316600
580,000000	0,313700
579,000000	0,315500
578,000000	0,315200
577,000000	0,315100
576,000000	0,313900
575,000000	0,313000
574,000000	0,310500
573,000000	0,310400
572,000000	0,308700
571,000000	0,308100
570,000000	0,307200
569,000000	0,305500
568,000000	0,299200
567,000000	0,299300
566,000000	0,294700
565,000000	0,291500
564,000000	0,288500
563,000000	0,283900
562,000000	0,275600
561,000000	0,263000
560,000000	0,263300
559,000000	0,262200
558,000000	0,264800
557,000000	0,264100
556,000000	0,266600
555,000000	0,267200
554,000000	0,267300
553,000000	0,265100
552,000000	0,268100
551,000000	0,265500
550,000000	0,265700
549,000000	0,267500
548,000000	0,266900
547,000000	0,261600
546,000000	0,264200
545,000000	0,263700
544,000000	0,262400
543,000000	0,261400
542,000000	0,261400
541,000000	0,256100
540,000000	0,256700
539,000000	0,255400
538,000000	0,254100
537,000000	0,251700
536,000000	0,251900
535,000000	0,247700
534,000000	0,246500
533,000000	0,243400
532,000000	0,243300
531,000000	0,239700
530,000000	0,237200
529,000000	0,232600
528,000000	0,233500
527,000000	0,228700
526,000000	0,225900
525,000000	0,224600
524,000000	0,222300
523,000000	0,216100
522,000000	0,217100
521,000000	0,212800
520,000000	0,210500
519,000000	0,209600
518,000000	0,207400
517,000000	0,201600
516,000000	0,201200
515,000000	0,198800
514,000000	0,196100
513,000000	0,193100
512,000000	0,191700
511,000000	0,187900
510,000000	0,186200
509,000000	0,183400
508,000000	0,184200
507,000000	0,181600
506,000000	0,179800
505,000000	0,176600
504,000000	0,178100
503,000000	0,175000
502,000000	0,176500
501,000000	0,176100
500,000000	0,175100
499,000000	0,176600
498,000000	0,177600
497,000000	0,177900
496,000000	0,178400
495,000000	0,180400
494,000000	0,183100
493,000000	0,182000
492,000000	0,189100
491,000000	0,190700
490,000000	0,195100
489,000000	0,200300
488,000000	0,205200
487,000000	0,208900
486,000000	0,216800
485,000000	0,222300
484,000000	0,230600
483,000000	0,235700
482,000000	0,239000
481,000000	0,240700
480,000000	0,240700
479,000000	0,235800
478,000000	0,236000
477,000000	0,234400
476,000000	0,231000
475,000000	0,231500
474,000000	0,227200
473,000000	0,223400
472,000000	0,225300
471,000000	0,224200
470,000000	0,220300
469,000000	0,220200
468,000000	0,216300
467,000000	0,213100
466,000000	0,211600
465,000000	0,209400
464,000000	0,208300
463,000000	0,206600
462,000000	0,199600
461,000000	0,197600
460,000000	0,198300
459,000000	0,194100
458,000000	0,192300
457,000000	0,192500
456,000000	0,187500
455,000000	0,183800
454,000000	0,185200
453,000000	0,182200
452,000000	0,180900
451,000000	0,181500
450,000000	0,177200
449,000000	0,173000
448,000000	0,175500
447,000000	0,175100
446,000000	0,172100
445,000000	0,170900
444,000000	0,171700
443,000000	0,170200
442,000000	0,172000
441,000000	0,171600
440,000000	0,171100
439,000000	0,170700
438,000000	0,167200
437,000000	0,166600
436,000000	0,168400
435,000000	0,167000
434,000000	0,165900
433,000000	0,165300
432,000000	0,160600
431,000000	0,159100
430,000000	0,161200
429,000000	0,158900
428,000000	0,157300
427,000000	0,157700
426,000000	0,153700
425,000000	0,151100
424,000000	0,151500
423,000000	0,150900
422,000000	0,149100
421,000000	0,146900
420,000000	0,144700
419,000000	0,141000
418,000000	0,142100
417,000000	0,141900
416,000000	0,139600
415,000000	0,136200
414,000000	0,133800
413,000000	0,131100
412,000000	0,130400
411,000000	0,128400
410,000000	0,126500
409,000000	0,123200
408,000000	0,119700
407,000000	0,118100
406,000000	0,117700
405,000000	0,114700
404,000000	0,112200
403,000000	0,109700
402,000000	0,104600
401,000000	0,102500
400,000000	0,102900
399,000000	0,099800
398,000000	0,096200
397,000000	0,094200
396,000000	0,091600
395,000000	0,088900
394,000000	0,088500
393,000000	0,087600
392,000000	0,084000
391,000000	0,080300
390,000000	0,077400
389,000000	0,076400
388,000000	0,076100
387,000000	0,073600
386,000000	0,071400
385,000000	0,069400
384,000000	0,067100
383,000000	0,065800
382,000000	0,066100
381,000000	0,063200
380,000000	0,060800
379,000000	0,058900
378,000000	0,035300
377,000000	0,002200
376,000000	0,002300
375,000000	0,003700
374,000000	0,004400
373,000000	0,006100
372,000000	0,008100
371,000000	0,007800
370,000000	0,006400
369,000000	0,006100
368,000000	0,006400
367,000000	0,007600
366,000000	0,008400
365,000000	0,007800
364,000000	0,007100
363,000000	0,006300
362,000000	0,005300
361,000000	0,006300
360,000000	0,007200
359,000000	0,006600
358,000000	0,006100
357,000000	0,005200
356,000000	0,004300
355,000000	0,005800
354,000000	0,006600
353,000000	0,004000
352,000000	0,002800
351,000000	0,003300
350,000000	0,002300
