PE UV       SUBTECH     SPECTRUM    ASCII       PEDS        4.00        
   -1
Sample4782.Sample.asc
23/08/24
03:27:41.00
23/08/24
03:27:41.00
Analyst

350,000000
1
Lambda 850
850N4111301
PerkinElmer UV WinLab 6.4.0.971 / 1.61.00 Lambda 800

0
0
2
0
0
VIS
1
1
1
RBeamAtt,SBeamAtt,150mm sphere / downward view
0
0
0
0
Fix
 
0
0,2
0
0
0
 
 
 
0
 
0
150
0
Front
100
 
S:100 R:100
 
0
0
0
 
0
 
 
 
0
 
 
0
0
0
0
0
 
 
 
 
0
0


0
0
#HDR
-1
-1
#GR
nm
%T
1.0
0.0
800,000000
-1,000000
451
8
95,398798
39,153456
#DATA
800,000000	95,354759
799,000000	95,398798
798,000000	95,227430
797,000000	95,274323
796,000000	95,145181
795,000000	95,097057
794,000000	95,083119
793,000000	95,197545
792,000000	95,208821
791,000000	95,076424
790,000000	95,128953
789,000000	94,949595
788,000000	95,003767
787,000000	94,948668
786,000000	95,008972
785,000000	94,908491
784,000000	94,787765
783,000000	94,857390
782,000000	94,761942
781,000000	94,835950
780,000000	94,785430
779,000000	94,734174
778,000000	94,727351
777,000000	94,601786
776,000000	94,586962
775,000000	94,604219
774,000000	94,660434
773,000000	94,521667
772,000000	94,501551
771,000000	94,373207
770,000000	94,493753
769,000000	94,452655
768,000000	94,410880
767,000000	94,376866
766,000000	94,474933
765,000000	94,355936
764,000000	94,381950
763,000000	94,310217
762,000000	94,381292
761,000000	94,271961
760,000000	94,225605
759,000000	94,280175
758,000000	94,289978
757,000000	94,166942
756,000000	94,116740
755,000000	94,194033
754,000000	94,153698
753,000000	94,170602
752,000000	94,193223
751,000000	94,123841
750,000000	94,095594
749,000000	94,075673
748,000000	94,075667
747,000000	94,007516
746,000000	93,999953
745,000000	93,993554
744,000000	93,926732
743,000000	93,900379
742,000000	93,970523
741,000000	93,960951
740,000000	93,941132
739,000000	93,879046
738,000000	93,918884
737,000000	93,892628
736,000000	93,941494
735,000000	94,011012
734,000000	93,992898
733,000000	94,044722
732,000000	94,084430
731,000000	94,097027
730,000000	94,156803
729,000000	94,257550
728,000000	94,338314
727,000000	94,316447
726,000000	94,275079
725,000000	94,223960
724,000000	94,178943
723,000000	94,113272
722,000000	94,104218
721,000000	94,055844
720,000000	93,979282
719,000000	93,851344
718,000000	93,749392
717,000000	93,685168
716,000000	93,497774
715,000000	93,263728
714,000000	92,962435
713,000000	92,770749
712,000000	92,511614
711,000000	92,236460
710,000000	91,883952
709,000000	91,553942
708,000000	91,133117
707,000000	90,590490
706,000000	90,032201
705,000000	89,456766
704,000000	88,762675
703,000000	88,063878
702,000000	87,272805
701,000000	86,358398
700,000000	85,380815
699,000000	84,224601
698,000000	82,928494
697,000000	81,523757
696,000000	79,954312
695,000000	78,223092
694,000000	76,382731
693,000000	74,314182
692,000000	72,169197
691,000000	69,875287
690,000000	67,487290
689,000000	65,049574
688,000000	62,742986
687,000000	60,491304
686,000000	58,476927
685,000000	56,798735
684,000000	55,398912
683,000000	54,372063
682,000000	53,680374
681,000000	53,319785
680,000000	53,176117
679,000000	53,166056
678,000000	53,249611
677,000000	53,304713
676,000000	53,363404
675,000000	53,459506
674,000000	53,575267
673,000000	53,766241
672,000000	54,073272
671,000000	54,530825
670,000000	55,140370
669,000000	55,886876
668,000000	56,776725
667,000000	57,814003
666,000000	58,970687
665,000000	60,189525
664,000000	61,440516
663,000000	62,709807
662,000000	63,967183
661,000000	65,137673
660,000000	66,201140
659,000000	67,142750
658,000000	67,944550
657,000000	68,580233
656,000000	69,056194
655,000000	69,438569
654,000000	69,738976
653,000000	69,982093
652,000000	70,222958
651,000000	70,542124
650,000000	70,985153
649,000000	71,602366
648,000000	72,325531
647,000000	73,084275
646,000000	73,913488
645,000000	74,735054
644,000000	75,534120
643,000000	76,304912
642,000000	76,969056
641,000000	77,519546
640,000000	78,027670
639,000000	78,449939
638,000000	78,757998
637,000000	78,977175
636,000000	79,086347
635,000000	79,140812
634,000000	79,212123
633,000000	79,222449
632,000000	79,162694
631,000000	79,132258
630,000000	79,137033
629,000000	79,145043
628,000000	79,160945
627,000000	79,169662
626,000000	79,182672
625,000000	79,230280
624,000000	79,268419
623,000000	79,302801
622,000000	79,412812
621,000000	79,539845
620,000000	79,672492
619,000000	79,800855
618,000000	79,967054
617,000000	80,123163
616,000000	80,268563
615,000000	80,451993
614,000000	80,647909
613,000000	80,853975
612,000000	81,055196
611,000000	81,235298
610,000000	81,427277
609,000000	81,630586
608,000000	81,838510
607,000000	81,983507
606,000000	82,158124
605,000000	82,319786
604,000000	82,492298
603,000000	82,600880
602,000000	82,694145
601,000000	82,839859
600,000000	82,947676
599,000000	83,047460
598,000000	83,125499
597,000000	83,222116
596,000000	83,308557
595,000000	83,382512
594,000000	83,424856
593,000000	83,490400
592,000000	83,580469
591,000000	83,689983
590,000000	83,784165
589,000000	83,932917
588,000000	84,035644
587,000000	84,123630
586,000000	84,257916
585,000000	84,422484
584,000000	84,517760
583,000000	84,695534
582,000000	84,848587
581,000000	84,976250
580,000000	85,098761
579,000000	85,213742
578,000000	85,339782
577,000000	85,560246
576,000000	85,731126
575,000000	85,902608
574,000000	86,090111
573,000000	86,290437
572,000000	86,470113
571,000000	86,654574
570,000000	86,860186
569,000000	87,047600
568,000000	87,235632
567,000000	87,405385
566,000000	87,577465
565,000000	87,760014
564,000000	87,863970
563,000000	88,008087
562,000000	88,064443
561,000000	88,194302
560,000000	88,277847
559,000000	88,315774
558,000000	88,333092
557,000000	88,378774
556,000000	88,416098
555,000000	88,382390
554,000000	88,381393
553,000000	88,419388
552,000000	88,297227
551,000000	88,289450
550,000000	88,256533
549,000000	88,253644
548,000000	88,201554
547,000000	88,138681
546,000000	88,103102
545,000000	88,033441
544,000000	87,920986
543,000000	87,878250
542,000000	87,795972
541,000000	87,711787
540,000000	87,622846
539,000000	87,557814
538,000000	87,480807
537,000000	87,364659
536,000000	87,228781
535,000000	87,143040
534,000000	86,987349
533,000000	86,784386
532,000000	86,576754
531,000000	86,356519
530,000000	86,176442
529,000000	85,913375
528,000000	85,585357
527,000000	85,291657
526,000000	84,931610
525,000000	84,514667
524,000000	84,046431
523,000000	83,586761
522,000000	82,969551
521,000000	82,317354
520,000000	81,729616
519,000000	81,039274
518,000000	80,313350
517,000000	79,546718
516,000000	78,686656
515,000000	77,779089
514,000000	76,853930
513,000000	75,888045
512,000000	74,866270
511,000000	73,877702
510,000000	72,723000
509,000000	71,662052
508,000000	70,546811
507,000000	69,392044
506,000000	68,283332
505,000000	67,174369
504,000000	66,108707
503,000000	64,936675
502,000000	63,863633
501,000000	62,793900
500,000000	61,717357
499,000000	60,695308
498,000000	59,700285
497,000000	58,747656
496,000000	57,848620
495,000000	56,987170
494,000000	56,246741
493,000000	55,497745
492,000000	54,788200
491,000000	54,089627
490,000000	53,514898
489,000000	53,002273
488,000000	52,587062
487,000000	52,209221
486,000000	51,904188
485,000000	51,616593
484,000000	51,439092
483,000000	51,328473
482,000000	51,218809
481,000000	51,175825
480,000000	51,136358
479,000000	51,138650
478,000000	51,161963
477,000000	51,093952
476,000000	51,072190
475,000000	51,054042
474,000000	51,020918
473,000000	51,044623
472,000000	51,026559
471,000000	50,994144
470,000000	51,016114
469,000000	50,997270
468,000000	50,963386
467,000000	50,936792
466,000000	50,930002
465,000000	50,864876
464,000000	50,777905
463,000000	50,723003
462,000000	50,583945
461,000000	50,448148
460,000000	50,314485
459,000000	50,109684
458,000000	49,888465
457,000000	49,615924
456,000000	49,225589
455,000000	48,820585
454,000000	48,377434
453,000000	47,826806
452,000000	47,192556
451,000000	46,520614
450,000000	45,771719
449,000000	44,970927
448,000000	44,132614
447,000000	43,356373
446,000000	42,592003
445,000000	41,932573
444,000000	41,283349
443,000000	40,683389
442,000000	40,232728
441,000000	39,874959
440,000000	39,569708
439,000000	39,394195
438,000000	39,244963
437,000000	39,153456
436,000000	39,194285
435,000000	39,270880
434,000000	39,392208
433,000000	39,581665
432,000000	39,826191
431,000000	40,104742
430,000000	40,409271
429,000000	40,712238
428,000000	40,994462
427,000000	41,306593
426,000000	41,605432
425,000000	41,831021
424,000000	42,076621
423,000000	42,289546
422,000000	42,488822
421,000000	42,651989
420,000000	42,870232
419,000000	43,072368
418,000000	43,262422
417,000000	43,543264
416,000000	43,779562
415,000000	44,072190
414,000000	44,397952
413,000000	44,790364
412,000000	45,189269
411,000000	45,646648
410,000000	46,125031
409,000000	46,632011
408,000000	47,105907
407,000000	47,632069
406,000000	48,140988
405,000000	48,642515
404,000000	49,094452
403,000000	49,568801
402,000000	50,006870
401,000000	50,407778
400,000000	50,756057
399,000000	51,056940
398,000000	51,328204
397,000000	51,581780
396,000000	51,734131
395,000000	51,881320
394,000000	51,985042
393,000000	52,119219
392,000000	52,186453
391,000000	52,244149
390,000000	52,335397
389,000000	52,395082
388,000000	52,442536
387,000000	52,453216
386,000000	52,487512
385,000000	52,572655
384,000000	52,661778
383,000000	52,750276
382,000000	52,851993
381,000000	52,994648
380,000000	53,158563
379,000000	53,273281
378,000000	53,524550
377,000000	53,808309
376,000000	53,965136
375,000000	54,333699
374,000000	54,678798
373,000000	54,940450
372,000000	55,276137
371,000000	55,611846
370,000000	55,814751
369,000000	56,054869
368,000000	56,350477
367,000000	56,583585
366,000000	56,760685
365,000000	56,920389
364,000000	57,137127
363,000000	57,364264
362,000000	57,530276
361,000000	57,730229
360,000000	57,781422
359,000000	57,896315
358,000000	58,032678
357,000000	58,116825
356,000000	58,158143
355,000000	58,130471
354,000000	58,053375
353,000000	57,947685
352,000000	57,811548
351,000000	57,519536
350,000000	57,215831
