PE UV       SUBTECH     SPECTRUM    ASCII       PEDS        4.00        
   -1
Sample4780.Sample.asc
23/08/24
03:11:18.00
23/08/24
03:11:18.00
Analyst

350,000000
1
Lambda 850
850N4111301
PerkinElmer UV WinLab 6.4.0.971 / 1.61.00 Lambda 800

0
0
2
0
0
VIS
1
1
1
RBeamAtt,SBeamAtt,150mm sphere / downward view
0
0
0
0
Fix
 
0
0,2
0
0
0
 
 
 
0
 
0
150
0
Front
100
 
S:100 R:100
 
0
0
0
 
0
 
 
 
0
 
 
0
0
0
0
0
 
 
 
 
0
0


0
0
#HDR
-1
-1
#GR
nm
%R
1.0
0.0
800,000000
-1,000000
451
8
63,691761
9,172657
#DATA
800,000000	63,691761
799,000000	63,638615
798,000000	63,450193
797,000000	63,451044
796,000000	63,359854
795,000000	63,517625
794,000000	63,183281
793,000000	63,354785
792,000000	63,230210
791,000000	63,103093
790,000000	63,049203
789,000000	63,074058
788,000000	62,857488
787,000000	62,875058
786,000000	62,779053
785,000000	62,650918
784,000000	62,662580
783,000000	62,645109
782,000000	62,562484
781,000000	62,443215
780,000000	62,530277
779,000000	62,437486
778,000000	62,325274
777,000000	62,230162
776,000000	62,166534
775,000000	62,136216
774,000000	62,059765
773,000000	62,017926
772,000000	61,976025
771,000000	61,918003
770,000000	61,853234
769,000000	61,766740
768,000000	61,843294
767,000000	61,717232
766,000000	61,716213
765,000000	61,612970
764,000000	61,591290
763,000000	61,507537
762,000000	61,549987
761,000000	61,383546
760,000000	61,427992
759,000000	61,370878
758,000000	61,343014
757,000000	61,244766
756,000000	61,193887
755,000000	61,078330
754,000000	61,127710
753,000000	61,075461
752,000000	61,034852
751,000000	60,918065
750,000000	60,898899
749,000000	60,803718
748,000000	60,750925
747,000000	60,659324
746,000000	60,635548
745,000000	60,532771
744,000000	60,418503
743,000000	60,287043
742,000000	60,300288
741,000000	60,184059
740,000000	60,075133
739,000000	60,001519
738,000000	59,953105
737,000000	59,922846
736,000000	59,832812
735,000000	59,879057
734,000000	59,755022
733,000000	59,731987
732,000000	59,695693
731,000000	59,627052
730,000000	59,582588
729,000000	59,418691
728,000000	59,274091
727,000000	59,091843
726,000000	58,899657
725,000000	58,617336
724,000000	58,335295
723,000000	57,958215
722,000000	57,626399
721,000000	57,135143
720,000000	56,648955
719,000000	56,101399
718,000000	55,472157
717,000000	54,814399
716,000000	54,108610
715,000000	53,260076
714,000000	52,365758
713,000000	51,360397
712,000000	50,293482
711,000000	49,109829
710,000000	47,843374
709,000000	46,469509
708,000000	44,958086
707,000000	43,376591
706,000000	41,728516
705,000000	39,984911
704,000000	38,114315
703,000000	36,140653
702,000000	34,115758
701,000000	32,040012
700,000000	29,896498
699,000000	27,730897
698,000000	25,601991
697,000000	23,509985
696,000000	21,442985
695,000000	19,504793
694,000000	17,715219
693,000000	16,082499
692,000000	14,630763
691,000000	13,410262
690,000000	12,432564
689,000000	11,640650
688,000000	11,034869
687,000000	10,586578
686,000000	10,272067
685,000000	10,074044
684,000000	9,927549
683,000000	9,842129
682,000000	9,787809
681,000000	9,756778
680,000000	9,745057
679,000000	9,739608
678,000000	9,739147
677,000000	9,735264
676,000000	9,727924
675,000000	9,752729
674,000000	9,777939
673,000000	9,787850
672,000000	9,813139
671,000000	9,845576
670,000000	9,874266
669,000000	9,935033
668,000000	10,022346
667,000000	10,141239
666,000000	10,294718
665,000000	10,471510
664,000000	10,665278
663,000000	10,906220
662,000000	11,181507
661,000000	11,469699
660,000000	11,766299
659,000000	12,057853
658,000000	12,331335
657,000000	12,572918
656,000000	12,751784
655,000000	12,893717
654,000000	13,025535
653,000000	13,132004
652,000000	13,247077
651,000000	13,406926
650,000000	13,628305
649,000000	13,915028
648,000000	14,288232
647,000000	14,744583
646,000000	15,241006
645,000000	15,784541
644,000000	16,368041
643,000000	16,945251
642,000000	17,494898
641,000000	17,988046
640,000000	18,436601
639,000000	18,833575
638,000000	19,139294
637,000000	19,346254
636,000000	19,497222
635,000000	19,594210
634,000000	19,625660
633,000000	19,627700
632,000000	19,618909
631,000000	19,597240
630,000000	19,568969
629,000000	19,548061
628,000000	19,559505
627,000000	19,585939
626,000000	19,615401
625,000000	19,653881
624,000000	19,710618
623,000000	19,787705
622,000000	19,875331
621,000000	19,987123
620,000000	20,129860
619,000000	20,294810
618,000000	20,471516
617,000000	20,668537
616,000000	20,897100
615,000000	21,123790
614,000000	21,372001
613,000000	21,634760
612,000000	21,867407
611,000000	22,104847
610,000000	22,376371
609,000000	22,629296
608,000000	22,879888
607,000000	23,154718
606,000000	23,392857
605,000000	23,611504
604,000000	23,819317
603,000000	24,040457
602,000000	24,223160
601,000000	24,416885
600,000000	24,598450
599,000000	24,731473
598,000000	24,866994
597,000000	24,985503
596,000000	25,085861
595,000000	25,183783
594,000000	25,309973
593,000000	25,434613
592,000000	25,563174
591,000000	25,724430
590,000000	25,908695
589,000000	26,107547
588,000000	26,308805
587,000000	26,548116
586,000000	26,768102
585,000000	27,011519
584,000000	27,223905
583,000000	27,477743
582,000000	27,746284
581,000000	28,000889
580,000000	28,276359
579,000000	28,553783
578,000000	28,879140
577,000000	29,194371
576,000000	29,519896
575,000000	29,881164
574,000000	30,276218
573,000000	30,686405
572,000000	31,099147
571,000000	31,560158
570,000000	32,003261
569,000000	32,482596
568,000000	32,917302
567,000000	33,364918
566,000000	33,773275
565,000000	34,132214
564,000000	34,483976
563,000000	34,809444
562,000000	35,125682
561,000000	35,359947
560,000000	35,556333
559,000000	35,749277
558,000000	35,832713
557,000000	35,940799
556,000000	35,992903
555,000000	36,033997
554,000000	36,046461
553,000000	36,047945
552,000000	35,989819
551,000000	35,930659
550,000000	35,855762
549,000000	35,823825
548,000000	35,761963
547,000000	35,644926
546,000000	35,527312
545,000000	35,425962
544,000000	35,285707
543,000000	35,185990
542,000000	35,025939
541,000000	34,865151
540,000000	34,716453
539,000000	34,547485
538,000000	34,384232
537,000000	34,147979
536,000000	33,907438
535,000000	33,634977
534,000000	33,325816
533,000000	32,960349
532,000000	32,559526
531,000000	32,146224
530,000000	31,667870
529,000000	31,129613
528,000000	30,520717
527,000000	29,923972
526,000000	29,229036
525,000000	28,464390
524,000000	27,661862
523,000000	26,780054
522,000000	25,897548
521,000000	24,931613
520,000000	23,980467
519,000000	23,007138
518,000000	22,002063
517,000000	21,008388
516,000000	20,045167
515,000000	19,109577
514,000000	18,216306
513,000000	17,308466
512,000000	16,479501
511,000000	15,681131
510,000000	14,969160
509,000000	14,311882
508,000000	13,701641
507,000000	13,169252
506,000000	12,685068
505,000000	12,232962
504,000000	11,856445
503,000000	11,498947
502,000000	11,199285
501,000000	10,918784
500,000000	10,695393
499,000000	10,497356
498,000000	10,317764
497,000000	10,163216
496,000000	10,051869
495,000000	9,947451
494,000000	9,842632
493,000000	9,756951
492,000000	9,667075
491,000000	9,606954
490,000000	9,559531
489,000000	9,530081
488,000000	9,483824
487,000000	9,460274
486,000000	9,417563
485,000000	9,416496
484,000000	9,412970
483,000000	9,411627
482,000000	9,414927
481,000000	9,419262
480,000000	9,435537
479,000000	9,449458
478,000000	9,462239
477,000000	9,457298
476,000000	9,456444
475,000000	9,452585
474,000000	9,459159
473,000000	9,452420
472,000000	9,467812
471,000000	9,451054
470,000000	9,457883
469,000000	9,464122
468,000000	9,454784
467,000000	9,464676
466,000000	9,451154
465,000000	9,466514
464,000000	9,457479
463,000000	9,451929
462,000000	9,444804
461,000000	9,428568
460,000000	9,433120
459,000000	9,432173
458,000000	9,418075
457,000000	9,416644
456,000000	9,395836
455,000000	9,375438
454,000000	9,359088
453,000000	9,331926
452,000000	9,322628
451,000000	9,308413
450,000000	9,272890
449,000000	9,254765
448,000000	9,249234
447,000000	9,230774
446,000000	9,226974
445,000000	9,214147
444,000000	9,191513
443,000000	9,184528
442,000000	9,172657
441,000000	9,192532
440,000000	9,187721
439,000000	9,193538
438,000000	9,188014
437,000000	9,204643
436,000000	9,198311
435,000000	9,183290
434,000000	9,192217
433,000000	9,212510
432,000000	9,214535
431,000000	9,211302
430,000000	9,227349
429,000000	9,222425
428,000000	9,246027
427,000000	9,247769
426,000000	9,245098
425,000000	9,249235
424,000000	9,261980
423,000000	9,269607
422,000000	9,277485
421,000000	9,291001
420,000000	9,294763
419,000000	9,309017
418,000000	9,317736
417,000000	9,333733
416,000000	9,350402
415,000000	9,366204
414,000000	9,362066
413,000000	9,386052
412,000000	9,404494
411,000000	9,437161
410,000000	9,450879
409,000000	9,472849
408,000000	9,501621
407,000000	9,537895
406,000000	9,557333
405,000000	9,601384
404,000000	9,621436
403,000000	9,654594
402,000000	9,690148
401,000000	9,725876
400,000000	9,752166
399,000000	9,797359
398,000000	9,821143
397,000000	9,855083
396,000000	9,884683
395,000000	9,905354
394,000000	9,923933
393,000000	9,947780
392,000000	9,980011
391,000000	10,004033
390,000000	10,034529
389,000000	10,057112
388,000000	10,081785
387,000000	10,114603
386,000000	10,143260
385,000000	10,167617
384,000000	10,187785
383,000000	10,211963
382,000000	10,265475
381,000000	10,294821
380,000000	10,332619
379,000000	10,375417
378,000000	10,344361
377,000000	10,198123
376,000000	10,094242
375,000000	10,154826
374,000000	10,277834
373,000000	10,417232
372,000000	10,521251
371,000000	10,584047
370,000000	10,665713
369,000000	10,736040
368,000000	10,831068
367,000000	10,930624
366,000000	10,988613
365,000000	11,065070
364,000000	11,159834
363,000000	11,272912
362,000000	11,339052
361,000000	11,366078
360,000000	11,435010
359,000000	11,490212
358,000000	11,599520
357,000000	11,719379
356,000000	11,762081
355,000000	11,773671
354,000000	11,867036
353,000000	11,968687
352,000000	11,995767
351,000000	12,066568
350,000000	12,176429
