PE UV       SUBTECH     SPECTRUM    ASCII       PEDS        4.00        
   -1
Sample4781.Sample.asc
23/08/24
03:15:31.00
23/08/24
03:15:31.00
Analyst

350,000000
1
Lambda 850
850N4111301
PerkinElmer UV WinLab 6.4.0.971 / 1.61.00 Lambda 800

0
0
2
0
0
VIS
1
1
1
RBeamAtt,SBeamAtt,150mm sphere / downward view
0
0
0
0
Fix
 
0
0,2
0
0
0
 
 
 
0
 
0
150
0
Front
100
 
S:100 R:100
 
0
0
0
 
0
 
 
 
0
 
 
0
0
0
0
0
 
 
 
 
0
0


0
0
#HDR
-1
-1
#GR
nm
%R
1.0
0.0
800,000000
-1,000000
451
8
101,296723
22,138148
#DATA
800,000000	101,296723
799,000000	101,237670
798,000000	101,189665
797,000000	101,078864
796,000000	100,792032
795,000000	100,970453
794,000000	100,710677
793,000000	100,737373
792,000000	100,786882
791,000000	100,440351
790,000000	100,578386
789,000000	100,544252
788,000000	100,373083
787,000000	100,403406
786,000000	100,271151
785,000000	100,248486
784,000000	100,063966
783,000000	100,063904
782,000000	99,986363
781,000000	99,861959
780,000000	99,928367
779,000000	99,923889
778,000000	99,772044
777,000000	99,748172
776,000000	99,665204
775,000000	99,682131
774,000000	99,561516
773,000000	99,455327
772,000000	99,421405
771,000000	99,467383
770,000000	99,354627
769,000000	99,287484
768,000000	99,384712
767,000000	99,277692
766,000000	99,151443
765,000000	99,221675
764,000000	99,094928
763,000000	99,018549
762,000000	99,139220
761,000000	98,870991
760,000000	99,101977
759,000000	98,978729
758,000000	98,838367
757,000000	98,861262
756,000000	98,833693
755,000000	98,798332
754,000000	98,790078
753,000000	98,877576
752,000000	98,849170
751,000000	98,622624
750,000000	98,633962
749,000000	98,577087
748,000000	98,518285
747,000000	98,533376
746,000000	98,476960
745,000000	98,476206
744,000000	98,394156
743,000000	98,250557
742,000000	98,311540
741,000000	98,345450
740,000000	98,255683
739,000000	98,268148
738,000000	98,198155
737,000000	98,301691
736,000000	98,414398
735,000000	98,545390
734,000000	98,567648
733,000000	98,671897
732,000000	98,851931
731,000000	98,938233
730,000000	99,065022
729,000000	99,158112
728,000000	99,188212
727,000000	99,176313
726,000000	99,202555
725,000000	99,244825
724,000000	99,234545
723,000000	99,032827
722,000000	98,983032
721,000000	98,811863
720,000000	98,596408
719,000000	98,366217
718,000000	98,158820
717,000000	97,810841
716,000000	97,517036
715,000000	97,143009
714,000000	96,676266
713,000000	96,201585
712,000000	95,683346
711,000000	95,080582
710,000000	94,417031
709,000000	93,648078
708,000000	92,735933
707,000000	91,750047
706,000000	90,686887
705,000000	89,502684
704,000000	88,226202
703,000000	86,755897
702,000000	85,039644
701,000000	83,274517
700,000000	81,394071
699,000000	79,286338
698,000000	77,010945
697,000000	74,503748
696,000000	71,747394
695,000000	68,851740
694,000000	65,785207
693,000000	62,464519
692,000000	59,066357
691,000000	55,646613
690,000000	52,297880
689,000000	48,984664
688,000000	45,900089
687,000000	43,117504
686,000000	40,723372
685,000000	38,758468
684,000000	37,226064
683,000000	36,129783
682,000000	35,387226
681,000000	34,980135
680,000000	34,808730
679,000000	34,783322
678,000000	34,842223
677,000000	34,901483
676,000000	34,956311
675,000000	35,040586
674,000000	35,188104
673,000000	35,383223
672,000000	35,705132
671,000000	36,200697
670,000000	36,831649
669,000000	37,625214
668,000000	38,627820
667,000000	39,785832
666,000000	41,090403
665,000000	42,526274
664,000000	44,060872
663,000000	45,656546
662,000000	47,219587
661,000000	48,725079
660,000000	50,155080
659,000000	51,430966
658,000000	52,502116
657,000000	53,382973
656,000000	54,061768
655,000000	54,573822
654,000000	55,013481
653,000000	55,362325
652,000000	55,721833
651,000000	56,209999
650,000000	56,894863
649,000000	57,761635
648,000000	58,792703
647,000000	59,984210
646,000000	61,246954
645,000000	62,497836
644,000000	63,746823
643,000000	64,959257
642,000000	66,069465
641,000000	67,029946
640,000000	67,800042
639,000000	68,432319
638,000000	68,970366
637,000000	69,367013
636,000000	69,622025
635,000000	69,722133
634,000000	69,747713
633,000000	69,787414
632,000000	69,765813
631,000000	69,700230
630,000000	69,653195
629,000000	69,637617
628,000000	69,646298
627,000000	69,693524
626,000000	69,720995
625,000000	69,800686
624,000000	69,903391
623,000000	70,002087
622,000000	70,116716
621,000000	70,286819
620,000000	70,493627
619,000000	70,746475
618,000000	71,039704
617,000000	71,317942
616,000000	71,627541
615,000000	71,939696
614,000000	72,312356
613,000000	72,684822
612,000000	73,007714
611,000000	73,302566
610,000000	73,625308
609,000000	73,961383
608,000000	74,325642
607,000000	74,653274
606,000000	74,944969
605,000000	75,224783
604,000000	75,456922
603,000000	75,708721
602,000000	75,938562
601,000000	76,188104
600,000000	76,399637
599,000000	76,572983
598,000000	76,738349
597,000000	76,878569
596,000000	76,999569
595,000000	77,110110
594,000000	77,255142
593,000000	77,397226
592,000000	77,513132
591,000000	77,758044
590,000000	77,941597
589,000000	78,134613
588,000000	78,343444
587,000000	78,619042
586,000000	78,864173
585,000000	79,083048
584,000000	79,327783
583,000000	79,629816
582,000000	79,881728
581,000000	80,140537
580,000000	80,421610
579,000000	80,670286
578,000000	80,999269
577,000000	81,284474
576,000000	81,590628
575,000000	81,934858
574,000000	82,304981
573,000000	82,659389
572,000000	83,012677
571,000000	83,420967
570,000000	83,803391
569,000000	84,211656
568,000000	84,574938
567,000000	84,932262
566,000000	85,233664
565,000000	85,549571
564,000000	85,824574
563,000000	85,970903
562,000000	86,250650
561,000000	86,397290
560,000000	86,543367
559,000000	86,621377
558,000000	86,704402
557,000000	86,814226
556,000000	86,799557
555,000000	86,809868
554,000000	86,849392
553,000000	86,816840
552,000000	86,694594
551,000000	86,617719
550,000000	86,599959
549,000000	86,511035
548,000000	86,456543
547,000000	86,329994
546,000000	86,224281
545,000000	86,059700
544,000000	85,990608
543,000000	85,909963
542,000000	85,773845
541,000000	85,590517
540,000000	85,397770
539,000000	85,275204
538,000000	85,176915
537,000000	84,956990
536,000000	84,705790
535,000000	84,465732
534,000000	84,182338
533,000000	83,823158
532,000000	83,496940
531,000000	83,124050
530,000000	82,709866
529,000000	82,171856
528,000000	81,604108
527,000000	81,061491
526,000000	80,404191
525,000000	79,607878
524,000000	78,710909
523,000000	77,814735
522,000000	76,785706
521,000000	75,713595
520,000000	74,603855
519,000000	73,335837
518,000000	72,034139
517,000000	70,676943
516,000000	69,184924
515,000000	67,721192
514,000000	66,161110
513,000000	64,529302
512,000000	62,906226
511,000000	61,260278
510,000000	59,581528
509,000000	57,936242
508,000000	56,277462
507,000000	54,623692
506,000000	52,985172
505,000000	51,450054
504,000000	49,909530
503,000000	48,368338
502,000000	46,925825
501,000000	45,501416
500,000000	44,200021
499,000000	42,969076
498,000000	41,736465
497,000000	40,601899
496,000000	39,570365
495,000000	38,586450
494,000000	37,706784
493,000000	36,854742
492,000000	36,059023
491,000000	35,394041
490,000000	34,757893
489,000000	34,253174
488,000000	33,773407
487,000000	33,376767
486,000000	33,018827
485,000000	32,763074
484,000000	32,575835
483,000000	32,481507
482,000000	32,367844
481,000000	32,329837
480,000000	32,321458
479,000000	32,256651
478,000000	32,241489
477,000000	32,226938
476,000000	32,205591
475,000000	32,182186
474,000000	32,164040
473,000000	32,128659
472,000000	32,167385
471,000000	32,159534
470,000000	32,121375
469,000000	32,136742
468,000000	32,087382
467,000000	32,067550
466,000000	32,041390
465,000000	31,987544
464,000000	31,904701
463,000000	31,832500
462,000000	31,690184
461,000000	31,588300
460,000000	31,419547
459,000000	31,237635
458,000000	31,020558
457,000000	30,737612
456,000000	30,405738
455,000000	30,010653
454,000000	29,606891
453,000000	29,096315
452,000000	28,556553
451,000000	27,965396
450,000000	27,299962
449,000000	26,590406
448,000000	25,963553
447,000000	25,321283
446,000000	24,718288
445,000000	24,177993
444,000000	23,675221
443,000000	23,246947
442,000000	22,926564
441,000000	22,643137
440,000000	22,448447
439,000000	22,305302
438,000000	22,194397
437,000000	22,138148
436,000000	22,158791
435,000000	22,185325
434,000000	22,298320
433,000000	22,455272
432,000000	22,605933
431,000000	22,828914
430,000000	23,055965
429,000000	23,279368
428,000000	23,517629
427,000000	23,755914
426,000000	23,941363
425,000000	24,128403
424,000000	24,301924
423,000000	24,460245
422,000000	24,642997
421,000000	24,788200
420,000000	24,963925
419,000000	25,108021
418,000000	25,297605
417,000000	25,507454
416,000000	25,735775
415,000000	26,001229
414,000000	26,238260
413,000000	26,548249
412,000000	26,925831
411,000000	27,317961
410,000000	27,730924
409,000000	28,136521
408,000000	28,591989
407,000000	29,063268
406,000000	29,534937
405,000000	30,009732
404,000000	30,440045
403,000000	30,871748
402,000000	31,314512
401,000000	31,718818
400,000000	32,049661
399,000000	32,326566
398,000000	32,575887
397,000000	32,789397
396,000000	32,990382
395,000000	33,124250
394,000000	33,270416
393,000000	33,364633
392,000000	33,464913
391,000000	33,573526
390,000000	33,638021
389,000000	33,690089
388,000000	33,742121
387,000000	33,814561
386,000000	33,873674
385,000000	33,935804
384,000000	34,002005
383,000000	34,102411
382,000000	34,210895
381,000000	34,372371
380,000000	34,541362
379,000000	34,740726
378,000000	35,006202
377,000000	35,182143
376,000000	35,248714
375,000000	35,505546
374,000000	35,807790
373,000000	36,138006
372,000000	36,477080
371,000000	36,803131
370,000000	37,100769
369,000000	37,388954
368,000000	37,639826
367,000000	37,840740
366,000000	38,123725
365,000000	38,276460
364,000000	38,437953
363,000000	38,703203
362,000000	38,828549
361,000000	39,010716
360,000000	39,255338
359,000000	39,386791
358,000000	39,482845
357,000000	39,482055
356,000000	39,524383
355,000000	39,582224
354,000000	39,513218
353,000000	39,375687
352,000000	39,199855
351,000000	39,089910
350,000000	38,825590
