PE UV       SUBTECH     SPECTRUM    ASCII       PEDS        4.00        
   -1
Sample4774.Sample.asc
23/08/24
02:24:44.00
23/08/24
02:24:44.00
Analyst

350,000000
1
Lambda 850
850N4111301
PerkinElmer UV WinLab 6.4.0.971 / 1.61.00 Lambda 800

0
0
2
0
0
VIS
1
1
1
RBeamAtt,SBeamAtt,150mm sphere / downward view
0
0
0
0
Fix
 
0
0,2
0
30
0
 
 
 
0
 
0
150
0
Front
100
 
S:100 R:100
 
0
0
0
 
0
 
 
 
0
 
 
0
0
0
0
0
 
 
 
 
0
0


0
0
#HDR
-1
-1
#GR
nm
EGY
1.0
0.0
800,000000
-1,000000
451
8
0,445300
0,004600
#DATA
800,000000	0,054000
799,000000	0,053400
798,000000	0,054600
797,000000	0,056800
796,000000	0,056500
795,000000	0,056900
794,000000	0,057500
793,000000	0,058000
792,000000	0,058700
791,000000	0,058800
790,000000	0,060700
789,000000	0,060900
788,000000	0,060100
787,000000	0,062100
786,000000	0,062400
785,000000	0,063300
784,000000	0,065200
783,000000	0,066500
782,000000	0,066100
781,000000	0,066300
780,000000	0,068900
779,000000	0,069400
778,000000	0,067200
777,000000	0,071000
776,000000	0,071300
775,000000	0,070900
774,000000	0,073900
773,000000	0,072200
772,000000	0,074200
771,000000	0,073900
770,000000	0,076300
769,000000	0,075900
768,000000	0,077600
767,000000	0,077900
766,000000	0,079900
765,000000	0,078800
764,000000	0,080300
763,000000	0,082200
762,000000	0,082000
761,000000	0,081000
760,000000	0,084300
759,000000	0,086800
758,000000	0,086200
757,000000	0,087600
756,000000	0,089300
755,000000	0,088100
754,000000	0,090500
753,000000	0,091800
752,000000	0,092200
751,000000	0,092700
750,000000	0,094900
749,000000	0,095800
748,000000	0,096200
747,000000	0,098000
746,000000	0,099600
745,000000	0,100000
744,000000	0,100900
743,000000	0,102500
742,000000	0,103600
741,000000	0,104700
740,000000	0,105700
739,000000	0,107100
738,000000	0,109700
737,000000	0,109100
736,000000	0,112200
735,000000	0,112700
734,000000	0,114500
733,000000	0,117000
732,000000	0,116600
731,000000	0,117200
730,000000	0,121000
729,000000	0,123700
728,000000	0,123500
727,000000	0,124400
726,000000	0,126800
725,000000	0,128400
724,000000	0,131100
723,000000	0,133000
722,000000	0,135400
721,000000	0,136500
720,000000	0,137100
719,000000	0,139900
718,000000	0,142100
717,000000	0,143500
716,000000	0,146600
715,000000	0,148300
714,000000	0,148700
713,000000	0,152100
712,000000	0,155600
711,000000	0,156000
710,000000	0,157200
709,000000	0,158900
708,000000	0,160200
707,000000	0,161900
706,000000	0,164100
705,000000	0,166400
704,000000	0,167200
703,000000	0,168100
702,000000	0,170500
701,000000	0,171900
700,000000	0,174700
699,000000	0,177600
698,000000	0,178800
697,000000	0,178400
696,000000	0,180000
695,000000	0,182900
694,000000	0,185300
693,000000	0,186600
692,000000	0,188300
691,000000	0,188800
690,000000	0,193300
689,000000	0,202900
688,000000	0,206200
687,000000	0,209700
686,000000	0,212100
685,000000	0,216400
684,000000	0,220400
683,000000	0,222700
682,000000	0,225100
681,000000	0,228200
680,000000	0,232400
679,000000	0,235600
678,000000	0,238200
677,000000	0,241200
676,000000	0,242800
675,000000	0,245200
674,000000	0,249200
673,000000	0,252400
672,000000	0,254100
671,000000	0,256700
670,000000	0,258600
669,000000	0,260100
668,000000	0,263200
667,000000	0,268400
666,000000	0,271400
665,000000	0,272400
664,000000	0,274100
663,000000	0,277300
662,000000	0,280200
661,000000	0,284600
660,000000	0,287900
659,000000	0,288800
658,000000	0,290800
657,000000	0,295100
656,000000	0,297800
655,000000	0,301500
654,000000	0,305400
653,000000	0,306600
652,000000	0,307700
651,000000	0,310600
650,000000	0,314900
649,000000	0,319300
648,000000	0,321600
647,000000	0,322400
646,000000	0,324700
645,000000	0,327300
644,000000	0,331400
643,000000	0,336400
642,000000	0,338800
641,000000	0,340100
640,000000	0,342200
639,000000	0,344200
638,000000	0,348300
637,000000	0,353200
636,000000	0,355800
635,000000	0,355400
634,000000	0,357000
633,000000	0,361200
632,000000	0,365300
631,000000	0,368200
630,000000	0,371500
629,000000	0,372400
628,000000	0,372900
627,000000	0,377100
626,000000	0,380800
625,000000	0,382900
624,000000	0,386200
623,000000	0,388500
622,000000	0,389300
621,000000	0,391100
620,000000	0,395700
619,000000	0,399100
618,000000	0,400200
617,000000	0,400500
616,000000	0,402800
615,000000	0,404300
614,000000	0,408800
613,000000	0,412400
612,000000	0,413600
611,000000	0,413000
610,000000	0,414500
609,000000	0,416500
608,000000	0,420500
607,000000	0,423600
606,000000	0,425200
605,000000	0,424000
604,000000	0,424400
603,000000	0,426700
602,000000	0,430500
601,000000	0,431500
600,000000	0,432500
599,000000	0,432700
598,000000	0,432400
597,000000	0,433100
596,000000	0,437200
595,000000	0,438500
594,000000	0,439100
593,000000	0,438600
592,000000	0,438300
591,000000	0,439000
590,000000	0,441900
589,000000	0,444300
588,000000	0,443400
587,000000	0,442200
586,000000	0,441900
585,000000	0,443400
584,000000	0,442400
583,000000	0,444300
582,000000	0,445300
581,000000	0,443100
580,000000	0,440600
579,000000	0,441300
578,000000	0,442000
577,000000	0,441200
576,000000	0,440400
575,000000	0,439500
574,000000	0,434200
573,000000	0,435700
572,000000	0,434300
571,000000	0,431300
570,000000	0,428900
569,000000	0,427400
568,000000	0,421200
567,000000	0,417700
566,000000	0,413700
565,000000	0,409700
564,000000	0,403800
563,000000	0,397700
562,000000	0,388900
561,000000	0,371100
560,000000	0,369200
559,000000	0,366700
558,000000	0,370800
557,000000	0,371600
556,000000	0,372500
555,000000	0,373300
554,000000	0,374700
553,000000	0,371600
552,000000	0,372900
551,000000	0,372800
550,000000	0,372700
549,000000	0,372200
548,000000	0,373400
547,000000	0,370100
546,000000	0,369000
545,000000	0,367700
544,000000	0,368500
543,000000	0,366700
542,000000	0,364400
541,000000	0,360500
540,000000	0,361200
539,000000	0,356800
538,000000	0,356200
537,000000	0,354000
536,000000	0,352600
535,000000	0,344400
534,000000	0,346200
533,000000	0,340900
532,000000	0,338400
531,000000	0,336000
530,000000	0,333900
529,000000	0,325400
528,000000	0,325700
527,000000	0,322000
526,000000	0,318700
525,000000	0,314300
524,000000	0,312400
523,000000	0,303900
522,000000	0,303500
521,000000	0,297900
520,000000	0,295100
519,000000	0,291500
518,000000	0,288000
517,000000	0,280900
516,000000	0,281100
515,000000	0,275200
514,000000	0,274200
513,000000	0,272100
512,000000	0,266900
511,000000	0,260300
510,000000	0,263400
509,000000	0,256600
508,000000	0,255500
507,000000	0,254100
506,000000	0,251800
505,000000	0,247000
504,000000	0,248400
503,000000	0,246100
502,000000	0,246600
501,000000	0,244600
500,000000	0,245600
499,000000	0,244700
498,000000	0,245000
497,000000	0,247200
496,000000	0,250500
495,000000	0,250000
494,000000	0,253300
493,000000	0,255500
492,000000	0,262000
491,000000	0,264400
490,000000	0,272000
489,000000	0,279400
488,000000	0,284400
487,000000	0,290800
486,000000	0,300300
485,000000	0,308000
484,000000	0,316700
483,000000	0,327000
482,000000	0,331600
481,000000	0,333800
480,000000	0,333900
479,000000	0,330300
478,000000	0,326400
477,000000	0,324900
476,000000	0,322800
475,000000	0,319500
474,000000	0,316600
473,000000	0,314600
472,000000	0,313500
471,000000	0,309600
470,000000	0,305600
469,000000	0,305600
468,000000	0,299400
467,000000	0,295000
466,000000	0,295300
465,000000	0,290700
464,000000	0,286400
463,000000	0,286200
462,000000	0,280400
461,000000	0,274700
460,000000	0,274400
459,000000	0,271900
458,000000	0,268000
457,000000	0,265500
456,000000	0,261600
455,000000	0,258100
454,000000	0,256900
453,000000	0,254400
452,000000	0,252300
451,000000	0,249800
450,000000	0,246000
449,000000	0,243100
448,000000	0,243100
447,000000	0,240700
446,000000	0,240400
445,000000	0,241100
444,000000	0,236700
443,000000	0,236800
442,000000	0,240500
441,000000	0,239100
440,000000	0,237200
439,000000	0,236900
438,000000	0,233600
437,000000	0,230300
436,000000	0,232200
435,000000	0,231300
434,000000	0,229400
433,000000	0,228400
432,000000	0,225000
431,000000	0,221500
430,000000	0,222900
429,000000	0,221800
428,000000	0,219700
427,000000	0,217400
426,000000	0,213900
425,000000	0,211300
424,000000	0,210800
423,000000	0,208700
422,000000	0,207200
421,000000	0,203400
420,000000	0,198700
419,000000	0,196800
418,000000	0,196900
417,000000	0,194600
416,000000	0,191800
415,000000	0,189500
414,000000	0,183900
413,000000	0,181100
412,000000	0,182000
411,000000	0,179400
410,000000	0,173800
409,000000	0,171000
408,000000	0,167100
407,000000	0,162800
406,000000	0,161800
405,000000	0,159600
404,000000	0,155400
403,000000	0,149500
402,000000	0,145700
401,000000	0,143700
400,000000	0,140700
399,000000	0,137000
398,000000	0,134600
397,000000	0,130300
396,000000	0,126000
395,000000	0,124100
394,000000	0,123200
393,000000	0,120000
392,000000	0,117000
391,000000	0,113000
390,000000	0,108700
389,000000	0,106500
388,000000	0,106000
387,000000	0,103400
386,000000	0,100100
385,000000	0,097400
384,000000	0,093800
383,000000	0,090500
382,000000	0,090200
381,000000	0,088400
380,000000	0,084200
379,000000	0,081300
378,000000	0,049800
377,000000	0,004600
376,000000	0,005800
375,000000	0,006600
374,000000	0,007800
373,000000	0,010200
372,000000	0,011100
371,000000	0,011300
370,000000	0,011900
369,000000	0,011700
368,000000	0,010600
367,000000	0,012800
366,000000	0,014900
365,000000	0,012600
364,000000	0,010900
363,000000	0,011300
362,000000	0,009900
361,000000	0,010400
360,000000	0,012000
359,000000	0,010700
358,000000	0,009400
357,000000	0,009300
356,000000	0,008700
355,000000	0,008700
354,000000	0,009500
353,000000	0,009400
352,000000	0,007800
351,000000	0,006600
350,000000	0,006300
