PE UV       SUBTECH     SPECTRUM    ASCII       PEDS        4.00        
   -1
Sample5210.Sample.asc
23/11/29
22:57:06.00
23/11/29
22:57:06.00
Analyst

400,000000
1
Lambda 850
850N4111301
PerkinElmer UV WinLab 6.4.0.971 / 1.61.00 Lambda 800

0
0
2
0
0
VIS
1
1
1
RBeamAtt,SBeamAtt,150mm sphere / downward view
0
0
0
0
Fix
 
0
0,2
0
30
0
 
 
 
0
 
0
150
0
Front
100
 
S:100 R:100
 
0
0
0
 
0
 
 
 
0
 
 
0
0
0
0
0
 
 
 
 
0
0


0
0
#HDR
-1
-1
#GR
nm
EGY
1.0
0.0
700,000000
-1,000000
301
8
0,040300
0,008100
#DATA
700,000000	0,014400
699,000000	0,014500
698,000000	0,012900
697,000000	0,016600
696,000000	0,013100
695,000000	0,013800
694,000000	0,015900
693,000000	0,015700
692,000000	0,013200
691,000000	0,014700
690,000000	0,015800
689,000000	0,016900
688,000000	0,016300
687,000000	0,017100
686,000000	0,017000
685,000000	0,018900
684,000000	0,017900
683,000000	0,018700
682,000000	0,019800
681,000000	0,018900
680,000000	0,017500
679,000000	0,020200
678,000000	0,020000
677,000000	0,019100
676,000000	0,019000
675,000000	0,022200
674,000000	0,019000
673,000000	0,020500
672,000000	0,021000
671,000000	0,022100
670,000000	0,022000
669,000000	0,022700
668,000000	0,022500
667,000000	0,023000
666,000000	0,023500
665,000000	0,024700
664,000000	0,023400
663,000000	0,023500
662,000000	0,023300
661,000000	0,024500
660,000000	0,023400
659,000000	0,024300
658,000000	0,024900
657,000000	0,026400
656,000000	0,024300
655,000000	0,025800
654,000000	0,025800
653,000000	0,026600
652,000000	0,027300
651,000000	0,026000
650,000000	0,024800
649,000000	0,027200
648,000000	0,029100
647,000000	0,028200
646,000000	0,028300
645,000000	0,029400
644,000000	0,028100
643,000000	0,028900
642,000000	0,029000
641,000000	0,030500
640,000000	0,029800
639,000000	0,029800
638,000000	0,029400
637,000000	0,030200
636,000000	0,029900
635,000000	0,031300
634,000000	0,032500
633,000000	0,029900
632,000000	0,032300
631,000000	0,033300
630,000000	0,031100
629,000000	0,032100
628,000000	0,033300
627,000000	0,033500
626,000000	0,032700
625,000000	0,033000
624,000000	0,034300
623,000000	0,034100
622,000000	0,033600
621,000000	0,033200
620,000000	0,033400
619,000000	0,034900
618,000000	0,035900
617,000000	0,035900
616,000000	0,035300
615,000000	0,035600
614,000000	0,036200
613,000000	0,036300
612,000000	0,035800
611,000000	0,035800
610,000000	0,034800
609,000000	0,034900
608,000000	0,034600
607,000000	0,037200
606,000000	0,037100
605,000000	0,037000
604,000000	0,037600
603,000000	0,036700
602,000000	0,037200
601,000000	0,039100
600,000000	0,038500
599,000000	0,037400
598,000000	0,037800
597,000000	0,038100
596,000000	0,037600
595,000000	0,038500
594,000000	0,039100
593,000000	0,038000
592,000000	0,037000
591,000000	0,037400
590,000000	0,038300
589,000000	0,038500
588,000000	0,038700
587,000000	0,039400
586,000000	0,037500
585,000000	0,038000
584,000000	0,038600
583,000000	0,039800
582,000000	0,039400
581,000000	0,039000
580,000000	0,037900
579,000000	0,037800
578,000000	0,039000
577,000000	0,040300
576,000000	0,040200
575,000000	0,037300
574,000000	0,036000
573,000000	0,036800
572,000000	0,036900
571,000000	0,038300
570,000000	0,037900
569,000000	0,035700
568,000000	0,035300
567,000000	0,036100
566,000000	0,035900
565,000000	0,036200
564,000000	0,036200
563,000000	0,034700
562,000000	0,032600
561,000000	0,031900
560,000000	0,032400
559,000000	0,032400
558,000000	0,031000
557,000000	0,031900
556,000000	0,033400
555,000000	0,033700
554,000000	0,031100
553,000000	0,029800
552,000000	0,030600
551,000000	0,032300
550,000000	0,033300
549,000000	0,032800
548,000000	0,031300
547,000000	0,029700
546,000000	0,029600
545,000000	0,031600
544,000000	0,032600
543,000000	0,032600
542,000000	0,032000
541,000000	0,030100
540,000000	0,029600
539,000000	0,032700
538,000000	0,033000
537,000000	0,030800
536,000000	0,029500
535,000000	0,028800
534,000000	0,029400
533,000000	0,030600
532,000000	0,030000
531,000000	0,029100
530,000000	0,028000
529,000000	0,027200
528,000000	0,027600
527,000000	0,027900
526,000000	0,028500
525,000000	0,028900
524,000000	0,028200
523,000000	0,025400
522,000000	0,027100
521,000000	0,027300
520,000000	0,025600
519,000000	0,026000
518,000000	0,026400
517,000000	0,024000
516,000000	0,023800
515,000000	0,023600
514,000000	0,024100
513,000000	0,023400
512,000000	0,024700
511,000000	0,022200
510,000000	0,021100
509,000000	0,021900
508,000000	0,022300
507,000000	0,022100
506,000000	0,021500
505,000000	0,021300
504,000000	0,021000
503,000000	0,020000
502,000000	0,020400
501,000000	0,021100
500,000000	0,022000
499,000000	0,019200
498,000000	0,021800
497,000000	0,021600
496,000000	0,020800
495,000000	0,021800
494,000000	0,023400
493,000000	0,020800
492,000000	0,022500
491,000000	0,022600
490,000000	0,022300
489,000000	0,024200
488,000000	0,027000
487,000000	0,024400
486,000000	0,025200
485,000000	0,026500
484,000000	0,028100
483,000000	0,028400
482,000000	0,030200
481,000000	0,027800
480,000000	0,029400
479,000000	0,028600
478,000000	0,029800
477,000000	0,028500
476,000000	0,027700
475,000000	0,027800
474,000000	0,028500
473,000000	0,027200
472,000000	0,027200
471,000000	0,028300
470,000000	0,028500
469,000000	0,025700
468,000000	0,024900
467,000000	0,025300
466,000000	0,025800
465,000000	0,025500
464,000000	0,025000
463,000000	0,024900
462,000000	0,023600
461,000000	0,024500
460,000000	0,024200
459,000000	0,023300
458,000000	0,024400
457,000000	0,023100
456,000000	0,022500
455,000000	0,021900
454,000000	0,023400
453,000000	0,023400
452,000000	0,020800
451,000000	0,023600
450,000000	0,022300
449,000000	0,019300
448,000000	0,020800
447,000000	0,020800
446,000000	0,020400
445,000000	0,021100
444,000000	0,020100
443,000000	0,020900
442,000000	0,020600
441,000000	0,021600
440,000000	0,020900
439,000000	0,018800
438,000000	0,017700
437,000000	0,020000
436,000000	0,020400
435,000000	0,019800
434,000000	0,018800
433,000000	0,017900
432,000000	0,016300
431,000000	0,018800
430,000000	0,019200
429,000000	0,019700
428,000000	0,018900
427,000000	0,017900
426,000000	0,017100
425,000000	0,015100
424,000000	0,018700
423,000000	0,019300
422,000000	0,015300
421,000000	0,015000
420,000000	0,015600
419,000000	0,016700
418,000000	0,016800
417,000000	0,018400
416,000000	0,018100
415,000000	0,016900
414,000000	0,014800
413,000000	0,012800
412,000000	0,015700
411,000000	0,015500
410,000000	0,012200
409,000000	0,012700
408,000000	0,011800
407,000000	0,015400
406,000000	0,016100
405,000000	0,013200
404,000000	0,011700
403,000000	0,012700
402,000000	0,010200
401,000000	0,008100
400,000000	0,012100
