PE UV       SUBTECH     SPECTRUM    ASCII       PEDS        4.00        
   -1
Sample5215.Sample.asc
23/11/29
23:18:32.00
23/11/29
23:18:32.00
Analyst

400,000000
1
Lambda 850
850N4111301
PerkinElmer UV WinLab 6.4.0.971 / 1.61.00 Lambda 800

0
0
2
0
0
VIS
1
1
1
RBeamAtt,SBeamAtt,150mm sphere / downward view
0
0
0
0
Fix
 
0
0,2
0
30
0
 
 
 
0
 
0
150
0
Front
100
 
S:100 R:100
 
0
0
0
 
0
 
 
 
0
 
 
0
0
0
0
0
 
 
 
 
0
0


0
0
#HDR
-1
-1
#GR
nm
EGY
1.0
0.0
700,000000
-1,000000
301
8
0,007800
-0,005900
#DATA
700,000000	0,002100
699,000000	0,003500
698,000000	0,003000
697,000000	0,000000
696,000000	0,001600
695,000000	0,002500
694,000000	0,001800
693,000000	0,002200
692,000000	0,002000
691,000000	0,004200
690,000000	-0,000700
689,000000	0,001500
688,000000	0,002100
687,000000	0,002800
686,000000	0,001100
685,000000	0,001500
684,000000	0,004400
683,000000	0,002300
682,000000	0,001000
681,000000	0,000900
680,000000	0,001700
679,000000	0,002300
678,000000	0,001700
677,000000	0,002400
676,000000	0,002300
675,000000	0,000200
674,000000	0,000700
673,000000	0,001300
672,000000	0,001500
671,000000	0,002800
670,000000	0,003600
669,000000	0,000100
668,000000	0,000300
667,000000	0,004400
666,000000	0,002400
665,000000	0,002200
664,000000	0,003000
663,000000	0,001000
662,000000	-0,000300
661,000000	0,001900
660,000000	0,004300
659,000000	0,002800
658,000000	0,000800
657,000000	0,001700
656,000000	0,000700
655,000000	0,002600
654,000000	0,002800
653,000000	0,003300
652,000000	0,000200
651,000000	0,001300
650,000000	0,002500
649,000000	0,002900
648,000000	0,003500
647,000000	0,003600
646,000000	0,001200
645,000000	0,001400
644,000000	0,001100
643,000000	0,004500
642,000000	0,003500
641,000000	0,002300
640,000000	0,000700
639,000000	0,001100
638,000000	0,001100
637,000000	0,004500
636,000000	0,004600
635,000000	0,002200
634,000000	0,001000
633,000000	0,002600
632,000000	0,001900
631,000000	0,004200
630,000000	0,004800
629,000000	0,003900
628,000000	0,001900
627,000000	0,002500
626,000000	0,002100
625,000000	0,005100
624,000000	0,003800
623,000000	0,005300
622,000000	0,004100
621,000000	0,001600
620,000000	0,004900
619,000000	0,005700
618,000000	0,004800
617,000000	0,005600
616,000000	0,005500
615,000000	0,002400
614,000000	0,004300
613,000000	0,005800
612,000000	0,005600
611,000000	0,005900
610,000000	0,005300
609,000000	0,003100
608,000000	0,005100
607,000000	0,003500
606,000000	0,005300
605,000000	0,004800
604,000000	0,003700
603,000000	0,003200
602,000000	0,004600
601,000000	0,005800
600,000000	0,006600
599,000000	0,007800
598,000000	0,006300
597,000000	0,003300
596,000000	0,005800
595,000000	0,005500
594,000000	0,005600
593,000000	0,005800
592,000000	0,005000
591,000000	0,002200
590,000000	0,004200
589,000000	0,007400
588,000000	0,006200
587,000000	0,007100
586,000000	0,006700
585,000000	0,005400
584,000000	0,005500
583,000000	0,005200
582,000000	0,006700
581,000000	0,006000
580,000000	0,003800
579,000000	0,004200
578,000000	0,006100
577,000000	0,004200
576,000000	0,005300
575,000000	0,006300
574,000000	0,004800
573,000000	0,003700
572,000000	0,006000
571,000000	0,004700
570,000000	0,005600
569,000000	0,006800
568,000000	0,004800
567,000000	0,003300
566,000000	0,005500
565,000000	0,005400
564,000000	0,004500
563,000000	0,004900
562,000000	0,004100
561,000000	0,002900
560,000000	0,003300
559,000000	0,003700
558,000000	0,005100
557,000000	0,003000
556,000000	0,002200
555,000000	0,004000
554,000000	0,005200
553,000000	0,002900
552,000000	0,002900
551,000000	0,004500
550,000000	0,003800
549,000000	0,003800
548,000000	0,003800
547,000000	0,002500
546,000000	0,003100
545,000000	0,004000
544,000000	0,004100
543,000000	0,004500
542,000000	0,004300
541,000000	0,004800
540,000000	0,003700
539,000000	0,001100
538,000000	0,001900
537,000000	0,004000
536,000000	0,003600
535,000000	0,004300
534,000000	0,003600
533,000000	0,001500
532,000000	0,001700
531,000000	0,003300
530,000000	0,002800
529,000000	0,003400
528,000000	0,003300
527,000000	0,001200
526,000000	0,001200
525,000000	0,002100
524,000000	0,003100
523,000000	0,004100
522,000000	0,002400
521,000000	0,000300
520,000000	0,001000
519,000000	0,002100
518,000000	0,002100
517,000000	0,001600
516,000000	0,001200
515,000000	-0,001000
514,000000	0,001400
513,000000	0,002500
512,000000	0,001200
511,000000	0,002300
510,000000	0,002400
509,000000	-0,000500
508,000000	0,000900
507,000000	0,002600
506,000000	0,002200
505,000000	0,000500
504,000000	-0,000000
503,000000	-0,000200
502,000000	0,001200
501,000000	0,001600
500,000000	-0,000700
499,000000	-0,001600
498,000000	-0,001200
497,000000	0,002400
496,000000	0,002500
495,000000	0,001800
494,000000	0,000600
493,000000	0,000100
492,000000	-0,001200
491,000000	0,000800
490,000000	0,001700
489,000000	0,002800
488,000000	-0,000000
487,000000	0,000100
486,000000	0,002200
485,000000	0,003400
484,000000	0,003300
483,000000	0,003600
482,000000	0,001800
481,000000	0,000100
480,000000	0,001800
479,000000	0,003200
478,000000	0,002700
477,000000	0,003400
476,000000	0,002700
475,000000	0,001700
474,000000	0,000500
473,000000	0,000500
472,000000	0,002200
471,000000	0,002000
470,000000	0,001900
469,000000	0,002000
468,000000	0,000900
467,000000	0,003100
466,000000	0,003000
465,000000	0,002700
464,000000	0,002300
463,000000	-0,001400
462,000000	0,001200
461,000000	0,000800
460,000000	0,000800
459,000000	0,002200
458,000000	-0,000000
457,000000	-0,000600
456,000000	0,000700
455,000000	0,001900
454,000000	0,000600
453,000000	0,001100
452,000000	-0,000400
451,000000	-0,001100
450,000000	-0,000800
449,000000	0,001700
448,000000	0,001900
447,000000	0,001800
446,000000	-0,000000
445,000000	-0,000900
444,000000	0,001500
443,000000	0,001000
442,000000	0,001900
441,000000	0,000800
440,000000	0,002300
439,000000	-0,001200
438,000000	0,001500
437,000000	-0,000400
436,000000	0,002900
435,000000	0,002700
434,000000	0,001600
433,000000	-0,003700
432,000000	0,001400
431,000000	0,000500
430,000000	0,000600
429,000000	0,000600
428,000000	-0,000100
427,000000	-0,001500
426,000000	0,001800
425,000000	0,001300
424,000000	0,000300
423,000000	0,000400
422,000000	0,002900
421,000000	-0,003600
420,000000	-0,000500
419,000000	-0,000700
418,000000	0,002100
417,000000	0,000600
416,000000	0,001500
415,000000	-0,004800
414,000000	0,000500
413,000000	-0,001100
412,000000	0,001700
411,000000	-0,000100
410,000000	0,000400
409,000000	-0,003300
408,000000	0,000800
407,000000	-0,001700
406,000000	0,001400
405,000000	0,001200
404,000000	0,001600
403,000000	-0,005900
402,000000	0,000800
401,000000	-0,001000
400,000000	0,001000
