PE UV       SUBTECH     SPECTRUM    ASCII       PEDS        4.00        
   -1
Sample5212.Sample.asc
23/11/29
23:06:26.00
23/11/29
23:06:26.00
Analyst

400,000000
1
Lambda 850
850N4111301
PerkinElmer UV WinLab 6.4.0.971 / 1.61.00 Lambda 800

0
0
2
0
0
VIS
1
1
1
RBeamAtt,SBeamAtt,150mm sphere / downward view
0
0
0
0
Fix
 
0
0,2
0
30
0
 
 
 
0
 
0
150
0
Front
100
 
S:100 R:100
 
0
0
0
 
0
 
 
 
0
 
 
0
0
0
0
0
 
 
 
 
0
0


0
0
#HDR
-1
-1
#GR
nm
EGY
1.0
0.0
700,000000
-1,000000
301
8
0,033700
0,005200
#DATA
700,000000	0,011600
699,000000	0,012100
698,000000	0,012500
697,000000	0,010400
696,000000	0,009300
695,000000	0,012400
694,000000	0,010600
693,000000	0,012000
692,000000	0,011900
691,000000	0,013500
690,000000	0,010100
689,000000	0,011500
688,000000	0,011400
687,000000	0,014200
686,000000	0,011400
685,000000	0,012400
684,000000	0,013300
683,000000	0,013800
682,000000	0,011700
681,000000	0,014300
680,000000	0,013500
679,000000	0,013500
678,000000	0,013800
677,000000	0,014700
676,000000	0,014300
675,000000	0,013600
674,000000	0,014300
673,000000	0,015300
672,000000	0,015900
671,000000	0,014400
670,000000	0,015500
669,000000	0,017100
668,000000	0,014700
667,000000	0,016700
666,000000	0,017400
665,000000	0,016600
664,000000	0,017700
663,000000	0,017600
662,000000	0,017900
661,000000	0,018200
660,000000	0,019000
659,000000	0,019600
658,000000	0,019600
657,000000	0,019700
656,000000	0,018900
655,000000	0,020600
654,000000	0,020400
653,000000	0,020800
652,000000	0,020600
651,000000	0,019600
650,000000	0,021100
649,000000	0,022200
648,000000	0,021500
647,000000	0,022300
646,000000	0,023900
645,000000	0,022700
644,000000	0,021700
643,000000	0,024200
642,000000	0,024000
641,000000	0,023500
640,000000	0,022700
639,000000	0,023500
638,000000	0,023500
637,000000	0,024000
636,000000	0,025900
635,000000	0,025900
634,000000	0,023900
633,000000	0,024700
632,000000	0,026200
631,000000	0,025400
630,000000	0,026600
629,000000	0,028000
628,000000	0,026500
627,000000	0,025000
626,000000	0,025200
625,000000	0,026800
624,000000	0,027600
623,000000	0,027600
622,000000	0,026100
621,000000	0,026400
620,000000	0,025200
619,000000	0,029300
618,000000	0,028300
617,000000	0,028500
616,000000	0,029900
615,000000	0,027800
614,000000	0,027000
613,000000	0,029600
612,000000	0,030500
611,000000	0,030500
610,000000	0,029400
609,000000	0,029200
608,000000	0,029200
607,000000	0,029600
606,000000	0,030900
605,000000	0,031200
604,000000	0,029600
603,000000	0,028800
602,000000	0,030000
601,000000	0,030600
600,000000	0,030900
599,000000	0,031600
598,000000	0,030900
597,000000	0,030000
596,000000	0,030500
595,000000	0,032000
594,000000	0,031500
593,000000	0,030800
592,000000	0,031100
591,000000	0,031100
590,000000	0,031300
589,000000	0,032900
588,000000	0,032900
587,000000	0,031400
586,000000	0,031200
585,000000	0,031700
584,000000	0,030900
583,000000	0,032800
582,000000	0,033000
581,000000	0,032700
580,000000	0,030600
579,000000	0,030800
578,000000	0,033700
577,000000	0,033400
576,000000	0,032400
575,000000	0,031900
574,000000	0,030300
573,000000	0,029600
572,000000	0,030000
571,000000	0,031900
570,000000	0,031600
569,000000	0,030700
568,000000	0,029500
567,000000	0,028800
566,000000	0,029700
565,000000	0,031500
564,000000	0,030600
563,000000	0,030200
562,000000	0,028800
561,000000	0,027200
560,000000	0,026000
559,000000	0,024800
558,000000	0,025600
557,000000	0,028500
556,000000	0,029700
555,000000	0,027900
554,000000	0,027400
553,000000	0,026000
552,000000	0,025400
551,000000	0,027400
550,000000	0,029100
549,000000	0,028500
548,000000	0,026400
547,000000	0,025400
546,000000	0,025500
545,000000	0,026900
544,000000	0,028100
543,000000	0,027500
542,000000	0,026000
541,000000	0,025000
540,000000	0,026200
539,000000	0,025900
538,000000	0,025800
537,000000	0,027100
536,000000	0,027300
535,000000	0,024700
534,000000	0,024400
533,000000	0,025500
532,000000	0,025200
531,000000	0,024300
530,000000	0,023900
529,000000	0,022500
528,000000	0,021800
527,000000	0,023400
526,000000	0,023400
525,000000	0,021300
524,000000	0,022200
523,000000	0,021700
522,000000	0,020500
521,000000	0,022000
520,000000	0,022000
519,000000	0,020900
518,000000	0,020300
517,000000	0,017500
516,000000	0,019400
515,000000	0,019200
514,000000	0,017600
513,000000	0,018300
512,000000	0,019300
511,000000	0,015600
510,000000	0,016100
509,000000	0,016700
508,000000	0,015400
507,000000	0,016500
506,000000	0,018300
505,000000	0,014900
504,000000	0,014900
503,000000	0,015200
502,000000	0,015500
501,000000	0,014800
500,000000	0,016400
499,000000	0,014600
498,000000	0,014800
497,000000	0,014100
496,000000	0,014400
495,000000	0,014600
494,000000	0,015200
493,000000	0,012500
492,000000	0,015000
491,000000	0,015100
490,000000	0,015800
489,000000	0,016800
488,000000	0,017700
487,000000	0,014800
486,000000	0,016900
485,000000	0,018500
484,000000	0,017800
483,000000	0,019700
482,000000	0,020200
481,000000	0,017600
480,000000	0,019100
479,000000	0,019700
478,000000	0,019300
477,000000	0,019100
476,000000	0,019800
475,000000	0,016500
474,000000	0,018600
473,000000	0,018500
472,000000	0,018800
471,000000	0,018400
470,000000	0,017800
469,000000	0,019200
468,000000	0,018200
467,000000	0,016000
466,000000	0,017900
465,000000	0,017600
464,000000	0,016600
463,000000	0,014000
462,000000	0,016500
461,000000	0,014900
460,000000	0,015700
459,000000	0,016400
458,000000	0,015000
457,000000	0,016800
456,000000	0,015000
455,000000	0,014500
454,000000	0,015000
453,000000	0,014600
452,000000	0,014600
451,000000	0,015900
450,000000	0,012100
449,000000	0,012400
448,000000	0,013600
447,000000	0,012800
446,000000	0,011700
445,000000	0,011100
444,000000	0,010600
443,000000	0,010700
442,000000	0,012200
441,000000	0,011800
440,000000	0,011300
439,000000	0,013800
438,000000	0,012700
437,000000	0,010000
436,000000	0,010100
435,000000	0,013200
434,000000	0,009800
433,000000	0,008700
432,000000	0,010300
431,000000	0,012000
430,000000	0,011600
429,000000	0,011500
428,000000	0,011300
427,000000	0,013300
426,000000	0,009800
425,000000	0,008700
424,000000	0,010800
423,000000	0,010600
422,000000	0,007700
421,000000	0,009700
420,000000	0,008000
419,000000	0,011700
418,000000	0,011600
417,000000	0,010400
416,000000	0,009400
415,000000	0,008600
414,000000	0,007900
413,000000	0,008200
412,000000	0,009100
411,000000	0,009500
410,000000	0,010000
409,000000	0,006700
408,000000	0,009000
407,000000	0,005700
406,000000	0,006900
405,000000	0,009500
404,000000	0,008500
403,000000	0,005700
402,000000	0,006100
401,000000	0,005200
400,000000	0,007100
