PE UV       SUBTECH     SPECTRUM    ASCII       PEDS        4.00        
   -1
Sample5216.Sample.asc
23/11/29
23:20:27.00
23/11/29
23:20:27.00
Analyst

400,000000
1
Lambda 850
850N4111301
PerkinElmer UV WinLab 6.4.0.971 / 1.61.00 Lambda 800

0
0
2
0
0
VIS
1
1
1
RBeamAtt,SBeamAtt,150mm sphere / downward view
0
0
0
0
Fix
 
0
0,2
0
30
0
 
 
 
0
 
0
150
0
Front
100
 
S:100 R:100
 
0
0
0
 
0
 
 
 
0
 
 
0
0
0
0
0
 
 
 
 
0
0


0
0
#HDR
-1
-1
#GR
nm
EGY
1.0
0.0
700,000000
-1,000000
301
8
0,548600
0,177000
#DATA
700,000000	0,218600
699,000000	0,223000
698,000000	0,222800
697,000000	0,224700
696,000000	0,227500
695,000000	0,230800
694,000000	0,232100
693,000000	0,233700
692,000000	0,236100
691,000000	0,238400
690,000000	0,238100
689,000000	0,256500
688,000000	0,260400
687,000000	0,266700
686,000000	0,265900
685,000000	0,271200
684,000000	0,276700
683,000000	0,279300
682,000000	0,281700
681,000000	0,287500
680,000000	0,291600
679,000000	0,295500
678,000000	0,298000
677,000000	0,302900
676,000000	0,303900
675,000000	0,309000
674,000000	0,310000
673,000000	0,314300
672,000000	0,316500
671,000000	0,321000
670,000000	0,325100
669,000000	0,328200
668,000000	0,330100
667,000000	0,335500
666,000000	0,337700
665,000000	0,340300
664,000000	0,345100
663,000000	0,349700
662,000000	0,350500
661,000000	0,355200
660,000000	0,358400
659,000000	0,361700
658,000000	0,363600
657,000000	0,369300
656,000000	0,370900
655,000000	0,374300
654,000000	0,379300
653,000000	0,383000
652,000000	0,384900
651,000000	0,389800
650,000000	0,392500
649,000000	0,395500
648,000000	0,398500
647,000000	0,403100
646,000000	0,406100
645,000000	0,409700
644,000000	0,411600
643,000000	0,416300
642,000000	0,419600
641,000000	0,422100
640,000000	0,426100
639,000000	0,429600
638,000000	0,431400
637,000000	0,437400
636,000000	0,440200
635,000000	0,442800
634,000000	0,446500
633,000000	0,450600
632,000000	0,451900
631,000000	0,455800
630,000000	0,459200
629,000000	0,461600
628,000000	0,464400
627,000000	0,466000
626,000000	0,469900
625,000000	0,473900
624,000000	0,476600
623,000000	0,480800
622,000000	0,483000
621,000000	0,485000
620,000000	0,488500
619,000000	0,491300
618,000000	0,493400
617,000000	0,497200
616,000000	0,499900
615,000000	0,500800
614,000000	0,503200
613,000000	0,507500
612,000000	0,510400
611,000000	0,511500
610,000000	0,513200
609,000000	0,515100
608,000000	0,517700
607,000000	0,520800
606,000000	0,522500
605,000000	0,523400
604,000000	0,525200
603,000000	0,527500
602,000000	0,529300
601,000000	0,531000
600,000000	0,533200
599,000000	0,535400
598,000000	0,535800
597,000000	0,535600
596,000000	0,539000
595,000000	0,541300
594,000000	0,540800
593,000000	0,541600
592,000000	0,540800
591,000000	0,541800
590,000000	0,542900
589,000000	0,546900
588,000000	0,545800
587,000000	0,545900
586,000000	0,546300
585,000000	0,546600
584,000000	0,547200
583,000000	0,548500
582,000000	0,548600
581,000000	0,546800
580,000000	0,544800
579,000000	0,545500
578,000000	0,546100
577,000000	0,544100
576,000000	0,543400
575,000000	0,541800
574,000000	0,538600
573,000000	0,536300
572,000000	0,534100
571,000000	0,532500
570,000000	0,530400
569,000000	0,525500
568,000000	0,519200
567,000000	0,514100
566,000000	0,510100
565,000000	0,506700
564,000000	0,498600
563,000000	0,488700
562,000000	0,480400
561,000000	0,465400
560,000000	0,451000
559,000000	0,451700
558,000000	0,454900
557,000000	0,456500
556,000000	0,457900
555,000000	0,459100
554,000000	0,458500
553,000000	0,458100
552,000000	0,458400
551,000000	0,458800
550,000000	0,460500
549,000000	0,459400
548,000000	0,457200
547,000000	0,456100
546,000000	0,454500
545,000000	0,454300
544,000000	0,454500
543,000000	0,452200
542,000000	0,449700
541,000000	0,447300
540,000000	0,444400
539,000000	0,442200
538,000000	0,440100
537,000000	0,437200
536,000000	0,432100
535,000000	0,427600
534,000000	0,424800
533,000000	0,423000
532,000000	0,419900
531,000000	0,415800
530,000000	0,410100
529,000000	0,405100
528,000000	0,401600
527,000000	0,399500
526,000000	0,394500
525,000000	0,388800
524,000000	0,383200
523,000000	0,377900
522,000000	0,372100
521,000000	0,370000
520,000000	0,366900
519,000000	0,361300
518,000000	0,354800
517,000000	0,350400
516,000000	0,346200
515,000000	0,342100
514,000000	0,338400
513,000000	0,334100
512,000000	0,328000
511,000000	0,324300
510,000000	0,321000
509,000000	0,318900
508,000000	0,316200
507,000000	0,313300
506,000000	0,309700
505,000000	0,305800
504,000000	0,304100
503,000000	0,302800
502,000000	0,300700
501,000000	0,299600
500,000000	0,299700
499,000000	0,298800
498,000000	0,297900
497,000000	0,302400
496,000000	0,303200
495,000000	0,305300
494,000000	0,310700
493,000000	0,312000
492,000000	0,317800
491,000000	0,322900
490,000000	0,330300
489,000000	0,337700
488,000000	0,345600
487,000000	0,352400
486,000000	0,363800
485,000000	0,374000
484,000000	0,384600
483,000000	0,396100
482,000000	0,404900
481,000000	0,404800
480,000000	0,405500
479,000000	0,403100
478,000000	0,399700
477,000000	0,397400
476,000000	0,397100
475,000000	0,390600
474,000000	0,388600
473,000000	0,387100
472,000000	0,383600
471,000000	0,379200
470,000000	0,378200
469,000000	0,372000
468,000000	0,369600
467,000000	0,364800
466,000000	0,361400
465,000000	0,357700
464,000000	0,352800
463,000000	0,348600
462,000000	0,343200
461,000000	0,336900
460,000000	0,335700
459,000000	0,334300
458,000000	0,329200
457,000000	0,326200
456,000000	0,321700
455,000000	0,316200
454,000000	0,314400
453,000000	0,312900
452,000000	0,312000
451,000000	0,303400
450,000000	0,303400
449,000000	0,301400
448,000000	0,298700
447,000000	0,297000
446,000000	0,294400
445,000000	0,292700
444,000000	0,291500
443,000000	0,291400
442,000000	0,293600
441,000000	0,292800
440,000000	0,293000
439,000000	0,289500
438,000000	0,290300
437,000000	0,286000
436,000000	0,286000
435,000000	0,284800
434,000000	0,282300
433,000000	0,279200
432,000000	0,278500
431,000000	0,276000
430,000000	0,272700
429,000000	0,272500
428,000000	0,270100
427,000000	0,265000
426,000000	0,266000
425,000000	0,262800
424,000000	0,259200
423,000000	0,257800
422,000000	0,255800
421,000000	0,252900
420,000000	0,248600
419,000000	0,247700
418,000000	0,244000
417,000000	0,241500
416,000000	0,237900
415,000000	0,234900
414,000000	0,232500
413,000000	0,226900
412,000000	0,224900
411,000000	0,222300
410,000000	0,216400
409,000000	0,216800
408,000000	0,209600
407,000000	0,203100
406,000000	0,202100
405,000000	0,199000
404,000000	0,193600
403,000000	0,190200
402,000000	0,184300
401,000000	0,181500
400,000000	0,177000
