PE UV       SUBTECH     SPECTRUM    ASCII       PEDS        4.00        
   -1
Sample4802.Sample.asc
23/08/31
23:33:34.00
23/08/31
23:33:34.00
Analyst

350,000000
1
Lambda 850
850N4111301
PerkinElmer UV WinLab 6.4.0.971 / 1.61.00 Lambda 800

0
0
2
0
0
VIS
1
1
1
RBeamAtt,SBeamAtt,150mm sphere / downward view
0
0
0
0
Fix
 
0
0,2
0
30
0
 
 
 
0
 
0
150
0
Front
100
 
S:100 R:100
 
0
0
0
 
0
 
 
 
0
 
 
0
0
0
0
0
 
 
 
 
0
0


0
0
#HDR
-1
-1
#GR
nm
EGY
1.0
0.0
850,000000
-1,000000
501
8
0,445500
0,002900
#DATA
850,000000	0,006000
849,000000	0,006000
848,000000	0,004800
847,000000	0,009400
846,000000	0,007300
845,000000	0,011500
844,000000	0,008900
843,000000	0,013800
842,000000	0,010600
841,000000	0,015100
840,000000	0,014400
839,000000	0,016600
838,000000	0,017700
837,000000	0,020200
836,000000	0,022500
835,000000	0,021900
834,000000	0,023800
833,000000	0,026600
832,000000	0,026800
831,000000	0,029700
830,000000	0,028800
829,000000	0,033400
828,000000	0,031200
827,000000	0,035500
826,000000	0,035600
825,000000	0,038100
824,000000	0,036400
823,000000	0,041900
822,000000	0,038600
821,000000	0,043100
820,000000	0,043300
819,000000	0,044500
818,000000	0,043700
817,000000	0,045500
816,000000	0,047900
815,000000	0,047200
814,000000	0,048400
813,000000	0,048100
812,000000	0,049900
811,000000	0,047700
810,000000	0,049400
809,000000	0,056100
808,000000	0,058200
807,000000	0,059300
806,000000	0,057400
805,000000	0,061900
804,000000	0,060700
803,000000	0,061800
802,000000	0,061400
801,000000	0,063700
800,000000	0,063400
799,000000	0,063500
798,000000	0,065300
797,000000	0,065800
796,000000	0,065900
795,000000	0,067700
794,000000	0,068000
793,000000	0,068800
792,000000	0,070000
791,000000	0,071100
790,000000	0,071000
789,000000	0,072200
788,000000	0,071700
787,000000	0,074200
786,000000	0,074300
785,000000	0,073700
784,000000	0,075900
783,000000	0,077600
782,000000	0,076200
781,000000	0,078600
780,000000	0,079100
779,000000	0,080300
778,000000	0,081600
777,000000	0,081000
776,000000	0,080900
775,000000	0,084600
774,000000	0,086000
773,000000	0,085100
772,000000	0,085100
771,000000	0,087200
770,000000	0,087900
769,000000	0,089400
768,000000	0,089800
767,000000	0,091200
766,000000	0,090700
765,000000	0,091600
764,000000	0,092900
763,000000	0,094000
762,000000	0,095400
761,000000	0,096500
760,000000	0,096500
759,000000	0,097200
758,000000	0,100200
757,000000	0,102000
756,000000	0,102000
755,000000	0,102900
754,000000	0,103700
753,000000	0,104500
752,000000	0,105700
751,000000	0,107600
750,000000	0,109500
749,000000	0,109800
748,000000	0,110100
747,000000	0,111300
746,000000	0,112100
745,000000	0,115400
744,000000	0,117700
743,000000	0,118200
742,000000	0,117500
741,000000	0,119500
740,000000	0,121900
739,000000	0,123200
738,000000	0,124200
737,000000	0,126300
736,000000	0,126300
735,000000	0,126300
734,000000	0,128800
733,000000	0,132800
732,000000	0,134100
731,000000	0,135500
730,000000	0,136400
729,000000	0,137600
728,000000	0,140500
727,000000	0,144200
726,000000	0,145100
725,000000	0,145200
724,000000	0,146900
723,000000	0,149700
722,000000	0,151500
721,000000	0,153800
720,000000	0,156500
719,000000	0,157200
718,000000	0,157500
717,000000	0,159700
716,000000	0,162500
715,000000	0,165600
714,000000	0,167500
713,000000	0,168100
712,000000	0,168800
711,000000	0,169600
710,000000	0,172400
709,000000	0,175400
708,000000	0,175600
707,000000	0,177200
706,000000	0,177200
705,000000	0,176800
704,000000	0,178900
703,000000	0,181700
702,000000	0,181800
701,000000	0,179800
700,000000	0,180000
699,000000	0,179800
698,000000	0,180100
697,000000	0,181700
696,000000	0,180600
695,000000	0,178000
694,000000	0,175500
693,000000	0,174500
692,000000	0,172600
691,000000	0,170500
690,000000	0,168200
689,000000	0,170800
688,000000	0,170300
687,000000	0,166300
686,000000	0,165600
685,000000	0,165600
684,000000	0,165300
683,000000	0,165400
682,000000	0,164800
681,000000	0,165900
680,000000	0,166900
679,000000	0,170400
678,000000	0,174200
677,000000	0,176500
676,000000	0,175200
675,000000	0,178100
674,000000	0,180700
673,000000	0,183900
672,000000	0,188900
671,000000	0,193200
670,000000	0,194600
669,000000	0,199000
668,000000	0,204900
667,000000	0,209400
666,000000	0,215600
665,000000	0,222000
664,000000	0,226100
663,000000	0,230100
662,000000	0,236600
661,000000	0,243800
660,000000	0,249200
659,000000	0,254900
658,000000	0,257300
657,000000	0,261000
656,000000	0,265500
655,000000	0,271500
654,000000	0,275300
653,000000	0,278100
652,000000	0,279600
651,000000	0,283000
650,000000	0,286500
649,000000	0,292000
648,000000	0,297300
647,000000	0,302100
646,000000	0,304300
645,000000	0,307800
644,000000	0,314400
643,000000	0,320100
642,000000	0,323800
641,000000	0,329000
640,000000	0,330400
639,000000	0,332300
638,000000	0,338100
637,000000	0,341800
636,000000	0,344600
635,000000	0,348900
634,000000	0,349200
633,000000	0,350200
632,000000	0,353800
631,000000	0,358300
630,000000	0,360900
629,000000	0,362200
628,000000	0,363000
627,000000	0,365000
626,000000	0,368400
625,000000	0,371800
624,000000	0,374300
623,000000	0,376600
622,000000	0,377800
621,000000	0,380100
620,000000	0,382200
619,000000	0,386300
618,000000	0,390500
617,000000	0,393200
616,000000	0,395400
615,000000	0,393900
614,000000	0,401900
613,000000	0,402800
612,000000	0,403200
611,000000	0,407900
610,000000	0,411400
609,000000	0,409800
608,000000	0,413200
607,000000	0,417200
606,000000	0,419700
605,000000	0,421100
604,000000	0,423600
603,000000	0,423000
602,000000	0,425600
601,000000	0,427700
600,000000	0,431300
599,000000	0,431800
598,000000	0,432500
597,000000	0,431800
596,000000	0,434700
595,000000	0,434500
594,000000	0,437300
593,000000	0,438800
592,000000	0,438700
591,000000	0,435900
590,000000	0,439400
589,000000	0,440300
588,000000	0,440500
587,000000	0,441900
586,000000	0,443300
585,000000	0,440100
584,000000	0,444700
583,000000	0,444700
582,000000	0,442800
581,000000	0,442900
580,000000	0,445500
579,000000	0,441500
578,000000	0,443000
577,000000	0,441000
576,000000	0,442400
575,000000	0,441700
574,000000	0,439600
573,000000	0,435800
572,000000	0,437300
571,000000	0,432600
570,000000	0,433100
569,000000	0,428900
568,000000	0,427400
567,000000	0,419900
566,000000	0,420300
565,000000	0,411400
564,000000	0,407900
563,000000	0,403000
562,000000	0,395800
561,000000	0,369700
560,000000	0,373300
559,000000	0,371900
558,000000	0,375300
557,000000	0,374600
556,000000	0,374800
555,000000	0,378500
554,000000	0,376700
553,000000	0,373800
552,000000	0,376500
551,000000	0,376400
550,000000	0,374200
549,000000	0,376200
548,000000	0,373000
547,000000	0,373600
546,000000	0,366500
545,000000	0,371600
544,000000	0,365400
543,000000	0,366900
542,000000	0,364500
541,000000	0,364100
540,000000	0,357900
539,000000	0,356300
538,000000	0,355900
537,000000	0,351300
536,000000	0,347700
535,000000	0,347200
534,000000	0,343400
533,000000	0,338100
532,000000	0,334000
531,000000	0,332600
530,000000	0,328500
529,000000	0,322600
528,000000	0,319800
527,000000	0,313900
526,000000	0,309900
525,000000	0,307900
524,000000	0,302500
523,000000	0,296300
522,000000	0,293100
521,000000	0,287700
520,000000	0,281900
519,000000	0,277100
518,000000	0,273100
517,000000	0,267300
516,000000	0,262600
515,000000	0,255700
514,000000	0,249900
513,000000	0,246600
512,000000	0,241200
511,000000	0,236200
510,000000	0,228300
509,000000	0,227300
508,000000	0,221400
507,000000	0,219800
506,000000	0,212200
505,000000	0,211600
504,000000	0,203800
503,000000	0,203600
502,000000	0,197700
501,000000	0,198800
500,000000	0,194500
499,000000	0,192200
498,000000	0,191100
497,000000	0,188500
496,000000	0,187400
495,000000	0,187300
494,000000	0,189700
493,000000	0,188900
492,000000	0,191900
491,000000	0,192000
490,000000	0,193400
489,000000	0,197800
488,000000	0,201700
487,000000	0,207300
486,000000	0,210200
485,000000	0,212600
484,000000	0,217300
483,000000	0,225600
482,000000	0,227100
481,000000	0,227700
480,000000	0,226500
479,000000	0,221800
478,000000	0,218400
477,000000	0,219000
476,000000	0,216300
475,000000	0,214900
474,000000	0,215300
473,000000	0,210400
472,000000	0,206700
471,000000	0,208200
470,000000	0,206000
469,000000	0,202400
468,000000	0,200000
467,000000	0,195700
466,000000	0,192700
465,000000	0,192000
464,000000	0,189800
463,000000	0,187000
462,000000	0,184000
461,000000	0,179400
460,000000	0,176700
459,000000	0,175400
458,000000	0,173500
457,000000	0,172200
456,000000	0,169500
455,000000	0,163400
454,000000	0,160500
453,000000	0,161400
452,000000	0,157500
451,000000	0,152500
450,000000	0,150200
449,000000	0,145100
448,000000	0,141100
447,000000	0,140500
446,000000	0,138600
445,000000	0,135800
444,000000	0,133200
443,000000	0,129800
442,000000	0,129300
441,000000	0,130800
440,000000	0,129200
439,000000	0,127100
438,000000	0,125100
437,000000	0,126400
436,000000	0,125300
435,000000	0,124600
434,000000	0,123500
433,000000	0,124300
432,000000	0,122600
431,000000	0,120200
430,000000	0,120900
429,000000	0,122000
428,000000	0,121700
427,000000	0,121700
426,000000	0,121500
425,000000	0,118200
424,000000	0,118600
423,000000	0,121000
422,000000	0,120200
421,000000	0,117400
420,000000	0,116500
419,000000	0,114500
418,000000	0,114200
417,000000	0,114900
416,000000	0,114700
415,000000	0,112700
414,000000	0,110800
413,000000	0,108100
412,000000	0,108800
411,000000	0,108900
410,000000	0,109100
409,000000	0,107800
408,000000	0,104300
407,000000	0,103400
406,000000	0,104100
405,000000	0,104200
404,000000	0,101900
403,000000	0,099600
402,000000	0,098400
401,000000	0,095800
400,000000	0,094700
399,000000	0,095200
398,000000	0,092100
397,000000	0,089700
396,000000	0,087200
395,000000	0,084400
394,000000	0,083600
393,000000	0,082700
392,000000	0,081200
391,000000	0,078100
390,000000	0,076100
389,000000	0,074100
388,000000	0,073300
387,000000	0,073100
386,000000	0,071200
385,000000	0,069300
384,000000	0,066600
383,000000	0,065000
382,000000	0,064300
381,000000	0,062500
380,000000	0,060200
379,000000	0,058200
378,000000	0,026300
377,000000	0,003200
376,000000	0,002900
375,000000	0,003600
374,000000	0,005100
373,000000	0,007000
372,000000	0,007800
371,000000	0,007700
370,000000	0,008000
369,000000	0,006700
368,000000	0,007800
367,000000	0,009200
366,000000	0,009900
365,000000	0,008400
364,000000	0,008600
363,000000	0,008100
362,000000	0,006000
361,000000	0,008400
360,000000	0,009800
359,000000	0,007200
358,000000	0,006200
357,000000	0,006300
356,000000	0,005700
355,000000	0,006000
354,000000	0,007100
353,000000	0,004500
352,000000	0,004900
351,000000	0,004300
350,000000	0,004000
