PE UV       SUBTECH     SPECTRUM    ASCII       PEDS        4.00        
   -1
Sample4799.Sample.asc
23/08/31
23:12:25.00
23/08/31
23:12:25.00
Analyst

350,000000
1
Lambda 850
850N4111301
PerkinElmer UV WinLab 6.4.0.971 / 1.61.00 Lambda 800

0
0
2
0
0
VIS
1
1
1
RBeamAtt,SBeamAtt,150mm sphere / downward view
0
0
0
0
Fix
 
0
0,2
0
30
0
 
 
 
0
 
0
150
0
Front
100
 
S:100 R:100
 
0
0
0
 
0
 
 
 
0
 
 
0
0
0
0
0
 
 
 
 
0
0


0
0
#HDR
-1
-1
#GR
nm
EGY
1.0
0.0
850,000000
-1,000000
501
8
0,033000
-0,005200
#DATA
850,000000	-0,003100
849,000000	-0,002400
848,000000	-0,002800
847,000000	-0,003700
846,000000	-0,004100
845,000000	0,000100
844,000000	-0,001600
843,000000	-0,004300
842,000000	-0,001600
841,000000	-0,001000
840,000000	-0,004000
839,000000	-0,000800
838,000000	-0,000000
837,000000	0,000200
836,000000	-0,003100
835,000000	-0,000800
834,000000	-0,001500
833,000000	-0,000700
832,000000	0,000500
831,000000	0,001600
830,000000	-0,001000
829,000000	-0,001600
828,000000	-0,002000
827,000000	0,000400
826,000000	0,000400
825,000000	0,001700
824,000000	-0,000500
823,000000	-0,000400
822,000000	-0,000900
821,000000	0,001400
820,000000	0,001400
819,000000	-0,000600
818,000000	0,001200
817,000000	0,000200
816,000000	-0,001500
815,000000	0,001000
814,000000	0,002100
813,000000	0,000100
812,000000	0,001100
811,000000	0,000900
810,000000	-0,001300
809,000000	0,000500
808,000000	-0,000500
807,000000	0,001200
806,000000	-0,000200
805,000000	0,001500
804,000000	0,003400
803,000000	0,002800
802,000000	0,002200
801,000000	0,000300
800,000000	0,001800
799,000000	0,002700
798,000000	0,001700
797,000000	0,002500
796,000000	0,002000
795,000000	0,000800
794,000000	0,001700
793,000000	0,003800
792,000000	0,003000
791,000000	0,002500
790,000000	0,002600
789,000000	0,002700
788,000000	0,002100
787,000000	0,003500
786,000000	0,004100
785,000000	0,002900
784,000000	0,001200
783,000000	0,002700
782,000000	0,002700
781,000000	0,002900
780,000000	0,003500
779,000000	0,003300
778,000000	0,001500
777,000000	0,002600
776,000000	0,003700
775,000000	0,003600
774,000000	0,003900
773,000000	0,004100
772,000000	0,002300
771,000000	0,002400
770,000000	0,002300
769,000000	0,005400
768,000000	0,003800
767,000000	0,002400
766,000000	0,002800
765,000000	0,003300
764,000000	0,002900
763,000000	0,005100
762,000000	0,004800
761,000000	0,003500
760,000000	0,002200
759,000000	0,004100
758,000000	0,003200
757,000000	0,005100
756,000000	0,005600
755,000000	0,004500
754,000000	0,002400
753,000000	0,003700
752,000000	0,005300
751,000000	0,005600
750,000000	0,005200
749,000000	0,005500
748,000000	0,003200
747,000000	0,003600
746,000000	0,004500
745,000000	0,006900
744,000000	0,006200
743,000000	0,004700
742,000000	0,003600
741,000000	0,003900
740,000000	0,004300
739,000000	0,007800
738,000000	0,007800
737,000000	0,005300
736,000000	0,005100
735,000000	0,006100
734,000000	0,005000
733,000000	0,007800
732,000000	0,008600
731,000000	0,006200
730,000000	0,004700
729,000000	0,006200
728,000000	0,007500
727,000000	0,008700
726,000000	0,007700
725,000000	0,007400
724,000000	0,005500
723,000000	0,005600
722,000000	0,008900
721,000000	0,010000
720,000000	0,008400
719,000000	0,008300
718,000000	0,007300
717,000000	0,006700
716,000000	0,008900
715,000000	0,011000
714,000000	0,010000
713,000000	0,009100
712,000000	0,007700
711,000000	0,007900
710,000000	0,009800
709,000000	0,011800
708,000000	0,011200
707,000000	0,008700
706,000000	0,007200
705,000000	0,009100
704,000000	0,010500
703,000000	0,010400
702,000000	0,011200
701,000000	0,010100
700,000000	0,007400
699,000000	0,008200
698,000000	0,010000
697,000000	0,010100
696,000000	0,010000
695,000000	0,009700
694,000000	0,008100
693,000000	0,008200
692,000000	0,009800
691,000000	0,010000
690,000000	0,009200
689,000000	0,008700
688,000000	0,009500
687,000000	0,008000
686,000000	0,008900
685,000000	0,010000
684,000000	0,010100
683,000000	0,010400
682,000000	0,010200
681,000000	0,009400
680,000000	0,011000
679,000000	0,011400
678,000000	0,010500
677,000000	0,011700
676,000000	0,010500
675,000000	0,008000
674,000000	0,009100
673,000000	0,012400
672,000000	0,012700
671,000000	0,012100
670,000000	0,013200
669,000000	0,011200
668,000000	0,011400
667,000000	0,013000
666,000000	0,013300
665,000000	0,013700
664,000000	0,015100
663,000000	0,014100
662,000000	0,015100
661,000000	0,015800
660,000000	0,017400
659,000000	0,017700
658,000000	0,016900
657,000000	0,015100
656,000000	0,015500
655,000000	0,016600
654,000000	0,017400
653,000000	0,018400
652,000000	0,019200
651,000000	0,015900
650,000000	0,018100
649,000000	0,019500
648,000000	0,019500
647,000000	0,020600
646,000000	0,021200
645,000000	0,017500
644,000000	0,019200
643,000000	0,022100
642,000000	0,022000
641,000000	0,021400
640,000000	0,022900
639,000000	0,020200
638,000000	0,021800
637,000000	0,021900
636,000000	0,022800
635,000000	0,023700
634,000000	0,024100
633,000000	0,023300
632,000000	0,023500
631,000000	0,022000
630,000000	0,024200
629,000000	0,025900
628,000000	0,025400
627,000000	0,022300
626,000000	0,025000
625,000000	0,025400
624,000000	0,025100
623,000000	0,026200
622,000000	0,027500
621,000000	0,023400
620,000000	0,024900
619,000000	0,025300
618,000000	0,026500
617,000000	0,026000
616,000000	0,025600
615,000000	0,024600
614,000000	0,024800
613,000000	0,028500
612,000000	0,029800
611,000000	0,027600
610,000000	0,026600
609,000000	0,026900
608,000000	0,027000
607,000000	0,028000
606,000000	0,029200
605,000000	0,029600
604,000000	0,030700
603,000000	0,026800
602,000000	0,030300
601,000000	0,029600
600,000000	0,028700
599,000000	0,030100
598,000000	0,030100
597,000000	0,025800
596,000000	0,030400
595,000000	0,030000
594,000000	0,029200
593,000000	0,030500
592,000000	0,032300
591,000000	0,029700
590,000000	0,029900
589,000000	0,029900
588,000000	0,031800
587,000000	0,030500
586,000000	0,030600
585,000000	0,027900
584,000000	0,031000
583,000000	0,029500
582,000000	0,031600
581,000000	0,030600
580,000000	0,031100
579,000000	0,029100
578,000000	0,033000
577,000000	0,029100
576,000000	0,030700
575,000000	0,031900
574,000000	0,032000
573,000000	0,027500
572,000000	0,031400
571,000000	0,031300
570,000000	0,030500
569,000000	0,029300
568,000000	0,029800
567,000000	0,027100
566,000000	0,029200
565,000000	0,029100
564,000000	0,028600
563,000000	0,028600
562,000000	0,028200
561,000000	0,024300
560,000000	0,024600
559,000000	0,027500
558,000000	0,024600
557,000000	0,024500
556,000000	0,027100
555,000000	0,026400
554,000000	0,026900
553,000000	0,027000
552,000000	0,024400
551,000000	0,026300
550,000000	0,027200
549,000000	0,025700
548,000000	0,026200
547,000000	0,025500
546,000000	0,027100
545,000000	0,024900
544,000000	0,023000
543,000000	0,024300
542,000000	0,026600
541,000000	0,024600
540,000000	0,026900
539,000000	0,023000
538,000000	0,021400
537,000000	0,025700
536,000000	0,025600
535,000000	0,021600
534,000000	0,025100
533,000000	0,023400
532,000000	0,021100
531,000000	0,021900
530,000000	0,021700
529,000000	0,021900
528,000000	0,023700
527,000000	0,020400
526,000000	0,017900
525,000000	0,021000
524,000000	0,020900
523,000000	0,020400
522,000000	0,019500
521,000000	0,018500
520,000000	0,016300
519,000000	0,019600
518,000000	0,018800
517,000000	0,017200
516,000000	0,017300
515,000000	0,015200
514,000000	0,012900
513,000000	0,016200
512,000000	0,017700
511,000000	0,015800
510,000000	0,015500
509,000000	0,013600
508,000000	0,011000
507,000000	0,014100
506,000000	0,015400
505,000000	0,012800
504,000000	0,011400
503,000000	0,011300
502,000000	0,012100
501,000000	0,013200
500,000000	0,013700
499,000000	0,014600
498,000000	0,013500
497,000000	0,009900
496,000000	0,010700
495,000000	0,013900
494,000000	0,012600
493,000000	0,012600
492,000000	0,012100
491,000000	0,010200
490,000000	0,011300
489,000000	0,014300
488,000000	0,013900
487,000000	0,015200
486,000000	0,017200
485,000000	0,015100
484,000000	0,013900
483,000000	0,017300
482,000000	0,017600
481,000000	0,016300
480,000000	0,014700
479,000000	0,015000
478,000000	0,014900
477,000000	0,016300
476,000000	0,016300
475,000000	0,015200
474,000000	0,014000
473,000000	0,012700
472,000000	0,013600
471,000000	0,015100
470,000000	0,014800
469,000000	0,014500
468,000000	0,013900
467,000000	0,012100
466,000000	0,013200
465,000000	0,014900
464,000000	0,013800
463,000000	0,012400
462,000000	0,013000
461,000000	0,011200
460,000000	0,011300
459,000000	0,013400
458,000000	0,013100
457,000000	0,011000
456,000000	0,010800
455,000000	0,009900
454,000000	0,009700
453,000000	0,011800
452,000000	0,012600
451,000000	0,012900
450,000000	0,011700
449,000000	0,009800
448,000000	0,010200
447,000000	0,010300
446,000000	0,009500
445,000000	0,009200
444,000000	0,008900
443,000000	0,007600
442,000000	0,008600
441,000000	0,010300
440,000000	0,010300
439,000000	0,010900
438,000000	0,011300
437,000000	0,008200
436,000000	0,008000
435,000000	0,011000
434,000000	0,009500
433,000000	0,007100
432,000000	0,008500
431,000000	0,008300
430,000000	0,007900
429,000000	0,010300
428,000000	0,009800
427,000000	0,007300
426,000000	0,007000
425,000000	0,006400
424,000000	0,007600
423,000000	0,008900
422,000000	0,007400
421,000000	0,006400
420,000000	0,006300
419,000000	0,006300
418,000000	0,008800
417,000000	0,008800
416,000000	0,008000
415,000000	0,009200
414,000000	0,009000
413,000000	0,005800
412,000000	0,005600
411,000000	0,008200
410,000000	0,006300
409,000000	0,004500
408,000000	0,005500
407,000000	0,006700
406,000000	0,006600
405,000000	0,006200
404,000000	0,005100
403,000000	0,003300
402,000000	0,004200
401,000000	0,006900
400,000000	0,007200
399,000000	0,006000
398,000000	0,005100
397,000000	0,003800
396,000000	0,003700
395,000000	0,004900
394,000000	0,005600
393,000000	0,004800
392,000000	0,003000
391,000000	0,002200
390,000000	0,003300
389,000000	0,003000
388,000000	0,003000
387,000000	0,003400
386,000000	0,001500
385,000000	0,001200
384,000000	0,002300
383,000000	0,002500
382,000000	0,003000
381,000000	0,003800
380,000000	0,002100
379,000000	-0,000000
378,000000	-0,002400
377,000000	-0,003300
376,000000	-0,004200
375,000000	-0,003500
374,000000	-0,002800
373,000000	-0,000900
372,000000	-0,000100
371,000000	-0,002000
370,000000	-0,003800
369,000000	-0,002200
368,000000	-0,002700
367,000000	-0,002800
366,000000	-0,001500
365,000000	-0,001700
364,000000	-0,004800
363,000000	-0,002900
362,000000	-0,002300
361,000000	-0,002600
360,000000	-0,001600
359,000000	-0,000900
358,000000	-0,005200
357,000000	-0,004200
356,000000	-0,001800
355,000000	-0,001900
354,000000	-0,002300
353,000000	-0,001200
352,000000	-0,003600
351,000000	-0,003200
350,000000	-0,002700
