PE UV       SUBTECH     SPECTRUM    ASCII       PEDS        4.00        
   -1
Sample4801.Sample.asc
23/08/31
23:30:21.00
23/08/31
23:30:21.00
Analyst

350,000000
1
Lambda 850
850N4111301
PerkinElmer UV WinLab 6.4.0.971 / 1.61.00 Lambda 800

0
0
2
0
0
VIS
1
1
1
RBeamAtt,SBeamAtt,150mm sphere / downward view
0
0
0
0
Fix
 
0
0,2
0
30
0
 
 
 
0
 
0
150
0
Front
100
 
S:100 R:100
 
0
0
0
 
0
 
 
 
0
 
 
0
0
0
0
0
 
 
 
 
0
0


0
0
#HDR
-1
-1
#GR
nm
EGY
1.0
0.0
850,000000
-1,000000
501
8
0,033900
-0,006000
#DATA
850,000000	-0,003100
849,000000	-0,002900
848,000000	-0,003500
847,000000	-0,003500
846,000000	-0,006000
845,000000	-0,000800
844,000000	-0,001100
843,000000	-0,001300
842,000000	-0,002500
841,000000	-0,000500
840,000000	-0,003200
839,000000	-0,000200
838,000000	0,000500
837,000000	-0,000500
836,000000	-0,002900
835,000000	0,000300
834,000000	-0,001100
833,000000	-0,001500
832,000000	-0,000100
831,000000	0,001700
830,000000	-0,001000
829,000000	-0,001300
828,000000	0,000400
827,000000	0,001600
826,000000	-0,001000
825,000000	0,002000
824,000000	0,001600
823,000000	-0,002500
822,000000	0,000600
821,000000	0,003700
820,000000	-0,000500
819,000000	0,000600
818,000000	0,001800
817,000000	-0,000400
816,000000	0,001100
815,000000	0,002100
814,000000	0,001200
813,000000	0,001900
812,000000	0,000500
811,000000	0,000900
810,000000	0,001300
809,000000	0,002000
808,000000	0,000700
807,000000	0,001300
806,000000	0,002400
805,000000	0,002400
804,000000	0,002600
803,000000	0,003200
802,000000	0,001900
801,000000	0,001200
800,000000	0,003000
799,000000	0,004100
798,000000	0,002500
797,000000	0,002900
796,000000	0,003100
795,000000	0,001400
794,000000	0,000700
793,000000	0,004000
792,000000	0,003100
791,000000	0,002400
790,000000	0,002500
789,000000	0,002300
788,000000	0,001200
787,000000	0,002400
786,000000	0,004300
785,000000	0,003300
784,000000	0,002300
783,000000	0,002500
782,000000	0,002700
781,000000	0,003100
780,000000	0,004100
779,000000	0,004900
778,000000	0,001400
777,000000	0,002000
776,000000	0,003300
775,000000	0,003900
774,000000	0,003500
773,000000	0,004100
772,000000	0,002200
771,000000	0,002600
770,000000	0,002600
769,000000	0,005500
768,000000	0,004300
767,000000	0,004200
766,000000	0,003800
765,000000	0,003400
764,000000	0,002200
763,000000	0,004800
762,000000	0,005500
761,000000	0,004400
760,000000	0,002300
759,000000	0,004400
758,000000	0,003400
757,000000	0,005400
756,000000	0,005600
755,000000	0,004700
754,000000	0,002500
753,000000	0,003200
752,000000	0,003500
751,000000	0,005800
750,000000	0,006100
749,000000	0,005900
748,000000	0,004100
747,000000	0,004000
746,000000	0,005400
745,000000	0,007200
744,000000	0,006300
743,000000	0,005400
742,000000	0,004300
741,000000	0,004300
740,000000	0,004600
739,000000	0,007100
738,000000	0,007400
737,000000	0,006200
736,000000	0,005000
735,000000	0,006500
734,000000	0,006300
733,000000	0,007600
732,000000	0,009000
731,000000	0,007900
730,000000	0,006000
729,000000	0,007200
728,000000	0,007900
727,000000	0,008200
726,000000	0,008600
725,000000	0,008200
724,000000	0,006900
723,000000	0,006800
722,000000	0,007100
721,000000	0,009300
720,000000	0,009100
719,000000	0,008000
718,000000	0,007000
717,000000	0,007300
716,000000	0,009800
715,000000	0,011700
714,000000	0,010500
713,000000	0,008600
712,000000	0,008800
711,000000	0,009500
710,000000	0,009400
709,000000	0,010800
708,000000	0,011700
707,000000	0,010600
706,000000	0,008700
705,000000	0,009200
704,000000	0,010900
703,000000	0,010700
702,000000	0,010900
701,000000	0,010600
700,000000	0,008300
699,000000	0,009300
698,000000	0,011900
697,000000	0,011900
696,000000	0,011400
695,000000	0,010000
694,000000	0,009300
693,000000	0,008400
692,000000	0,008700
691,000000	0,010900
690,000000	0,010700
689,000000	0,009900
688,000000	0,010000
687,000000	0,009900
686,000000	0,009400
685,000000	0,010100
684,000000	0,011100
683,000000	0,011400
682,000000	0,010900
681,000000	0,009200
680,000000	0,009900
679,000000	0,011200
678,000000	0,011800
677,000000	0,013100
676,000000	0,012200
675,000000	0,009600
674,000000	0,010800
673,000000	0,013200
672,000000	0,013100
671,000000	0,013500
670,000000	0,014700
669,000000	0,012400
668,000000	0,011600
667,000000	0,014300
666,000000	0,015300
665,000000	0,014900
664,000000	0,015100
663,000000	0,013600
662,000000	0,015600
661,000000	0,016100
660,000000	0,017000
659,000000	0,018000
658,000000	0,017800
657,000000	0,016200
656,000000	0,018600
655,000000	0,018300
654,000000	0,018800
653,000000	0,020400
652,000000	0,019700
651,000000	0,016400
650,000000	0,018600
649,000000	0,020500
648,000000	0,020800
647,000000	0,020100
646,000000	0,018700
645,000000	0,019200
644,000000	0,019600
643,000000	0,022400
642,000000	0,023000
641,000000	0,022800
640,000000	0,024400
639,000000	0,022200
638,000000	0,022600
637,000000	0,023400
636,000000	0,025100
635,000000	0,025300
634,000000	0,025000
633,000000	0,022900
632,000000	0,026100
631,000000	0,024900
630,000000	0,024500
629,000000	0,026000
628,000000	0,026300
627,000000	0,022300
626,000000	0,025800
625,000000	0,026700
624,000000	0,026300
623,000000	0,027000
622,000000	0,029300
621,000000	0,024700
620,000000	0,026900
619,000000	0,028500
618,000000	0,028900
617,000000	0,027100
616,000000	0,029300
615,000000	0,027000
614,000000	0,027700
613,000000	0,028700
612,000000	0,028800
611,000000	0,029700
610,000000	0,027000
609,000000	0,027100
608,000000	0,027700
607,000000	0,029400
606,000000	0,032100
605,000000	0,031000
604,000000	0,031700
603,000000	0,028600
602,000000	0,031600
601,000000	0,032000
600,000000	0,028800
599,000000	0,032500
598,000000	0,032900
597,000000	0,030100
596,000000	0,030500
595,000000	0,031500
594,000000	0,030800
593,000000	0,031200
592,000000	0,033100
591,000000	0,029500
590,000000	0,032600
589,000000	0,030900
588,000000	0,032900
587,000000	0,031400
586,000000	0,032300
585,000000	0,032500
584,000000	0,032400
583,000000	0,030000
582,000000	0,032800
581,000000	0,033900
580,000000	0,032300
579,000000	0,029200
578,000000	0,033700
577,000000	0,031600
576,000000	0,030700
575,000000	0,032000
574,000000	0,032400
573,000000	0,028700
572,000000	0,030800
571,000000	0,033200
570,000000	0,031600
569,000000	0,030300
568,000000	0,033500
567,000000	0,029000
566,000000	0,029800
565,000000	0,030800
564,000000	0,030400
563,000000	0,028700
562,000000	0,029500
561,000000	0,027000
560,000000	0,026800
559,000000	0,026700
558,000000	0,026100
557,000000	0,027300
556,000000	0,028700
555,000000	0,026300
554,000000	0,027600
553,000000	0,025900
552,000000	0,028200
551,000000	0,025900
550,000000	0,028000
549,000000	0,027500
548,000000	0,025800
547,000000	0,028200
546,000000	0,025400
545,000000	0,026900
544,000000	0,026200
543,000000	0,027400
542,000000	0,028500
541,000000	0,024600
540,000000	0,027700
539,000000	0,026200
538,000000	0,021300
537,000000	0,025600
536,000000	0,026400
535,000000	0,024900
534,000000	0,025900
533,000000	0,024400
532,000000	0,020900
531,000000	0,023700
530,000000	0,024400
529,000000	0,024400
528,000000	0,023600
527,000000	0,020800
526,000000	0,020500
525,000000	0,023000
524,000000	0,020600
523,000000	0,021100
522,000000	0,021600
521,000000	0,018300
520,000000	0,016200
519,000000	0,020600
518,000000	0,019300
517,000000	0,017600
516,000000	0,021500
515,000000	0,016100
514,000000	0,014400
513,000000	0,018400
512,000000	0,018800
511,000000	0,016600
510,000000	0,015800
509,000000	0,014400
508,000000	0,012900
507,000000	0,015300
506,000000	0,016000
505,000000	0,014400
504,000000	0,014300
503,000000	0,013600
502,000000	0,011400
501,000000	0,013400
500,000000	0,014500
499,000000	0,014600
498,000000	0,012600
497,000000	0,012300
496,000000	0,011700
495,000000	0,014400
494,000000	0,014600
493,000000	0,013600
492,000000	0,014200
491,000000	0,012000
490,000000	0,011900
489,000000	0,016200
488,000000	0,015600
487,000000	0,015400
486,000000	0,014700
485,000000	0,016900
484,000000	0,016800
483,000000	0,016800
482,000000	0,018500
481,000000	0,017500
480,000000	0,015500
479,000000	0,016000
478,000000	0,016800
477,000000	0,015700
476,000000	0,017100
475,000000	0,017400
474,000000	0,014900
473,000000	0,013700
472,000000	0,015000
471,000000	0,017300
470,000000	0,016500
469,000000	0,014600
468,000000	0,015200
467,000000	0,012700
466,000000	0,013400
465,000000	0,015900
464,000000	0,014200
463,000000	0,015000
462,000000	0,015300
461,000000	0,013500
460,000000	0,010900
459,000000	0,013900
458,000000	0,014500
457,000000	0,011700
456,000000	0,011200
455,000000	0,011200
454,000000	0,011200
453,000000	0,012900
452,000000	0,012900
451,000000	0,012300
450,000000	0,012000
449,000000	0,009100
448,000000	0,010000
447,000000	0,011600
446,000000	0,009500
445,000000	0,010600
444,000000	0,010000
443,000000	0,008000
442,000000	0,010400
441,000000	0,011900
440,000000	0,009800
439,000000	0,008700
438,000000	0,010000
437,000000	0,008900
436,000000	0,008900
435,000000	0,010400
434,000000	0,009600
433,000000	0,007700
432,000000	0,007600
431,000000	0,008500
430,000000	0,009600
429,000000	0,010500
428,000000	0,009900
427,000000	0,007300
426,000000	0,006800
425,000000	0,008300
424,000000	0,010300
423,000000	0,009400
422,000000	0,007800
421,000000	0,006700
420,000000	0,006900
419,000000	0,006600
418,000000	0,008400
417,000000	0,009300
416,000000	0,007300
415,000000	0,006200
414,000000	0,006800
413,000000	0,006900
412,000000	0,008400
411,000000	0,009000
410,000000	0,007200
409,000000	0,005600
408,000000	0,006400
407,000000	0,007300
406,000000	0,007500
405,000000	0,007500
404,000000	0,007600
403,000000	0,005600
402,000000	0,004100
401,000000	0,004000
400,000000	0,004500
399,000000	0,005200
398,000000	0,004700
397,000000	0,003000
396,000000	0,002600
395,000000	0,005400
394,000000	0,007000
393,000000	0,004700
392,000000	0,002500
391,000000	0,002500
390,000000	0,003800
389,000000	0,003700
388,000000	0,004000
387,000000	0,005000
386,000000	0,002800
385,000000	0,000800
384,000000	0,002000
383,000000	0,003300
382,000000	0,003500
381,000000	0,003600
380,000000	0,001200
379,000000	-0,000300
378,000000	-0,002400
377,000000	-0,002900
376,000000	-0,004600
375,000000	-0,003200
374,000000	-0,003000
373,000000	-0,001800
372,000000	-0,001000
371,000000	-0,003200
370,000000	-0,004600
369,000000	-0,003600
368,000000	-0,002200
367,000000	-0,000500
366,000000	0,000600
365,000000	-0,001900
364,000000	-0,004600
363,000000	-0,002100
362,000000	-0,001500
361,000000	-0,001500
360,000000	-0,001200
359,000000	-0,000900
358,000000	-0,004300
357,000000	-0,003200
356,000000	-0,002500
355,000000	-0,002400
354,000000	-0,001100
353,000000	-0,003200
352,000000	-0,004100
351,000000	-0,002400
350,000000	-0,003400
