PE UV       SUBTECH     SPECTRUM    ASCII       PEDS        4.00        
   -1
Sample4807.Sample.asc
23/09/01
00:00:51.00
23/09/01
00:00:51.00
Analyst

350,000000
1
Lambda 850
850N4111301
PerkinElmer UV WinLab 6.4.0.971 / 1.61.00 Lambda 800

0
0
2
0
0
VIS
1
1
1
RBeamAtt,SBeamAtt,150mm sphere / downward view
0
0
0
0
Fix
 
0
0,2
0
30
0
 
 
 
0
 
0
150
0
Front
100
 
S:100 R:100
 
0
0
0
 
0
 
 
 
0
 
 
0
0
0
0
0
 
 
 
 
0
0


0
0
#HDR
-1
-1
#GR
nm
EGY
1.0
0.0
850,000000
-1,000000
501
8
0,040400
-0,005800
#DATA
850,000000	-0,004100
849,000000	-0,001500
848,000000	-0,002900
847,000000	-0,003000
846,000000	-0,005800
845,000000	-0,000300
844,000000	0,000300
843,000000	-0,002000
842,000000	-0,002200
841,000000	-0,001400
840,000000	-0,002200
839,000000	-0,000900
838,000000	-0,000200
837,000000	-0,000100
836,000000	-0,003100
835,000000	0,000800
834,000000	-0,001000
833,000000	-0,001500
832,000000	0,001200
831,000000	0,000300
830,000000	0,000000
829,000000	-0,000400
828,000000	0,000700
827,000000	0,000900
826,000000	-0,000200
825,000000	-0,000000
824,000000	0,000300
823,000000	0,000100
822,000000	-0,002600
821,000000	0,001200
820,000000	0,001700
819,000000	0,000000
818,000000	0,000700
817,000000	0,000900
816,000000	0,000300
815,000000	0,002000
814,000000	0,002100
813,000000	0,001100
812,000000	0,001100
811,000000	0,002300
810,000000	0,001100
809,000000	0,001600
808,000000	0,000700
807,000000	0,001500
806,000000	0,003200
805,000000	0,002400
804,000000	0,002000
803,000000	0,003000
802,000000	0,003100
801,000000	0,002100
800,000000	0,002400
799,000000	0,003500
798,000000	0,003700
797,000000	0,002300
796,000000	0,003100
795,000000	0,002100
794,000000	0,001000
793,000000	0,005000
792,000000	0,003500
791,000000	0,002700
790,000000	0,002500
789,000000	0,004400
788,000000	0,002300
787,000000	0,004400
786,000000	0,004400
785,000000	0,003800
784,000000	0,002400
783,000000	0,002400
782,000000	0,002400
781,000000	0,004100
780,000000	0,003600
779,000000	0,005100
778,000000	0,002200
777,000000	0,003500
776,000000	0,005100
775,000000	0,005300
774,000000	0,004600
773,000000	0,004000
772,000000	0,005000
771,000000	0,003900
770,000000	0,003800
769,000000	0,006100
768,000000	0,005300
767,000000	0,004600
766,000000	0,003900
765,000000	0,003800
764,000000	0,003700
763,000000	0,004400
762,000000	0,005800
761,000000	0,003900
760,000000	0,003400
759,000000	0,004300
758,000000	0,004900
757,000000	0,005400
756,000000	0,006700
755,000000	0,006600
754,000000	0,003100
753,000000	0,004400
752,000000	0,005200
751,000000	0,007100
750,000000	0,006600
749,000000	0,004600
748,000000	0,004700
747,000000	0,004300
746,000000	0,004300
745,000000	0,007500
744,000000	0,006600
743,000000	0,005800
742,000000	0,005900
741,000000	0,005900
740,000000	0,005700
739,000000	0,007600
738,000000	0,008900
737,000000	0,006400
736,000000	0,004900
735,000000	0,006200
734,000000	0,006700
733,000000	0,007600
732,000000	0,008500
731,000000	0,007100
730,000000	0,005500
729,000000	0,006600
728,000000	0,007900
727,000000	0,009600
726,000000	0,008500
725,000000	0,008400
724,000000	0,007200
723,000000	0,007500
722,000000	0,008300
721,000000	0,010400
720,000000	0,010200
719,000000	0,008600
718,000000	0,008600
717,000000	0,008900
716,000000	0,010000
715,000000	0,012100
714,000000	0,011300
713,000000	0,010000
712,000000	0,009100
711,000000	0,009400
710,000000	0,011400
709,000000	0,012900
708,000000	0,013900
707,000000	0,011800
706,000000	0,009300
705,000000	0,011500
704,000000	0,012900
703,000000	0,013700
702,000000	0,013800
701,000000	0,012600
700,000000	0,010600
699,000000	0,010900
698,000000	0,013400
697,000000	0,014500
696,000000	0,014100
695,000000	0,012900
694,000000	0,012200
693,000000	0,012300
692,000000	0,014700
691,000000	0,015900
690,000000	0,015300
689,000000	0,016200
688,000000	0,014400
687,000000	0,012900
686,000000	0,015900
685,000000	0,016400
684,000000	0,016400
683,000000	0,019500
682,000000	0,016000
681,000000	0,014500
680,000000	0,017100
679,000000	0,017800
678,000000	0,017800
677,000000	0,019800
676,000000	0,019100
675,000000	0,016700
674,000000	0,018000
673,000000	0,019500
672,000000	0,020000
671,000000	0,020600
670,000000	0,019900
669,000000	0,018400
668,000000	0,020700
667,000000	0,021400
666,000000	0,023000
665,000000	0,022300
664,000000	0,022100
663,000000	0,020700
662,000000	0,021900
661,000000	0,022600
660,000000	0,023700
659,000000	0,025100
658,000000	0,023300
657,000000	0,021500
656,000000	0,023800
655,000000	0,025800
654,000000	0,024400
653,000000	0,025200
652,000000	0,025900
651,000000	0,023100
650,000000	0,025100
649,000000	0,027600
648,000000	0,026400
647,000000	0,027600
646,000000	0,028200
645,000000	0,026400
644,000000	0,027100
643,000000	0,027600
642,000000	0,029500
641,000000	0,028600
640,000000	0,029000
639,000000	0,027200
638,000000	0,029200
637,000000	0,029300
636,000000	0,030700
635,000000	0,031100
634,000000	0,027800
633,000000	0,029000
632,000000	0,029600
631,000000	0,030500
630,000000	0,032100
629,000000	0,033800
628,000000	0,032700
627,000000	0,028100
626,000000	0,033800
625,000000	0,033300
624,000000	0,031700
623,000000	0,034100
622,000000	0,034300
621,000000	0,031100
620,000000	0,035400
619,000000	0,034200
618,000000	0,034300
617,000000	0,033700
616,000000	0,036100
615,000000	0,033400
614,000000	0,034400
613,000000	0,035900
612,000000	0,036400
611,000000	0,037100
610,000000	0,036100
609,000000	0,034900
608,000000	0,037400
607,000000	0,035500
606,000000	0,037000
605,000000	0,038100
604,000000	0,037500
603,000000	0,034600
602,000000	0,037600
601,000000	0,036400
600,000000	0,037800
599,000000	0,039000
598,000000	0,039600
597,000000	0,036300
596,000000	0,038300
595,000000	0,039200
594,000000	0,038800
593,000000	0,037700
592,000000	0,040000
591,000000	0,036000
590,000000	0,038900
589,000000	0,038700
588,000000	0,038100
587,000000	0,038500
586,000000	0,039000
585,000000	0,036600
584,000000	0,039600
583,000000	0,037500
582,000000	0,040400
581,000000	0,039800
580,000000	0,039000
579,000000	0,037600
578,000000	0,039400
577,000000	0,038000
576,000000	0,038600
575,000000	0,037400
574,000000	0,039200
573,000000	0,035500
572,000000	0,037600
571,000000	0,037600
570,000000	0,037100
569,000000	0,037300
568,000000	0,037000
567,000000	0,034200
566,000000	0,035300
565,000000	0,035000
564,000000	0,036600
563,000000	0,032200
562,000000	0,035200
561,000000	0,029700
560,000000	0,031300
559,000000	0,030000
558,000000	0,031700
557,000000	0,032000
556,000000	0,033000
555,000000	0,031600
554,000000	0,032800
553,000000	0,030100
552,000000	0,033300
551,000000	0,029700
550,000000	0,032500
549,000000	0,033600
548,000000	0,031500
547,000000	0,030000
546,000000	0,033400
545,000000	0,029200
544,000000	0,031300
543,000000	0,031500
542,000000	0,032200
541,000000	0,028800
540,000000	0,033300
539,000000	0,029700
538,000000	0,030500
537,000000	0,029700
536,000000	0,031200
535,000000	0,029500
534,000000	0,029300
533,000000	0,028900
532,000000	0,025500
531,000000	0,029000
530,000000	0,027800
529,000000	0,029100
528,000000	0,028400
527,000000	0,026500
526,000000	0,023800
525,000000	0,027000
524,000000	0,026000
523,000000	0,025600
522,000000	0,028600
521,000000	0,022400
520,000000	0,022600
519,000000	0,025400
518,000000	0,025000
517,000000	0,023800
516,000000	0,025600
515,000000	0,022600
514,000000	0,019100
513,000000	0,023600
512,000000	0,022100
511,000000	0,022700
510,000000	0,019500
509,000000	0,020800
508,000000	0,017400
507,000000	0,021600
506,000000	0,020700
505,000000	0,021600
504,000000	0,021000
503,000000	0,019500
502,000000	0,018400
501,000000	0,019300
500,000000	0,020600
499,000000	0,021200
498,000000	0,020200
497,000000	0,019200
496,000000	0,017000
495,000000	0,021500
494,000000	0,020700
493,000000	0,021500
492,000000	0,020200
491,000000	0,022300
490,000000	0,020600
489,000000	0,025000
488,000000	0,024000
487,000000	0,023900
486,000000	0,023500
485,000000	0,024100
484,000000	0,024700
483,000000	0,026600
482,000000	0,028800
481,000000	0,027500
480,000000	0,027900
479,000000	0,025900
478,000000	0,025600
477,000000	0,025900
476,000000	0,026800
475,000000	0,026800
474,000000	0,025900
473,000000	0,023800
472,000000	0,024900
471,000000	0,025900
470,000000	0,024900
469,000000	0,025000
468,000000	0,024100
467,000000	0,021800
466,000000	0,021500
465,000000	0,024500
464,000000	0,024200
463,000000	0,021600
462,000000	0,021400
461,000000	0,020000
460,000000	0,020200
459,000000	0,021600
458,000000	0,022200
457,000000	0,020000
456,000000	0,020200
455,000000	0,019400
454,000000	0,019800
453,000000	0,020200
452,000000	0,020400
451,000000	0,020000
450,000000	0,018300
449,000000	0,016800
448,000000	0,017700
447,000000	0,020200
446,000000	0,018300
445,000000	0,018400
444,000000	0,017800
443,000000	0,016300
442,000000	0,016500
441,000000	0,020300
440,000000	0,018100
439,000000	0,017000
438,000000	0,018200
437,000000	0,015900
436,000000	0,016200
435,000000	0,019400
434,000000	0,018400
433,000000	0,015500
432,000000	0,015700
431,000000	0,016100
430,000000	0,017200
429,000000	0,017200
428,000000	0,016800
427,000000	0,015000
426,000000	0,014700
425,000000	0,014700
424,000000	0,015800
423,000000	0,016700
422,000000	0,015800
421,000000	0,014500
420,000000	0,014900
419,000000	0,012300
418,000000	0,014300
417,000000	0,016700
416,000000	0,013600
415,000000	0,012200
414,000000	0,013000
413,000000	0,012400
412,000000	0,013300
411,000000	0,014600
410,000000	0,012600
409,000000	0,010800
408,000000	0,010000
407,000000	0,010400
406,000000	0,011200
405,000000	0,012300
404,000000	0,011100
403,000000	0,009000
402,000000	0,008500
401,000000	0,009500
400,000000	0,011100
399,000000	0,010200
398,000000	0,008300
397,000000	0,008100
396,000000	0,007100
395,000000	0,007000
394,000000	0,008300
393,000000	0,008900
392,000000	0,006400
391,000000	0,005200
390,000000	0,005400
389,000000	0,006200
388,000000	0,008200
387,000000	0,008200
386,000000	0,007000
385,000000	0,005500
384,000000	0,005800
383,000000	0,004500
382,000000	0,004800
381,000000	0,005900
380,000000	0,004300
379,000000	0,003000
378,000000	-0,001700
377,000000	-0,005200
376,000000	-0,004500
375,000000	-0,001700
374,000000	-0,002800
373,000000	-0,001100
372,000000	0,000400
371,000000	-0,003900
370,000000	-0,004100
369,000000	-0,001800
368,000000	-0,002000
367,000000	-0,001500
366,000000	-0,000700
365,000000	-0,001300
364,000000	-0,005200
363,000000	-0,003000
362,000000	-0,000600
361,000000	-0,001500
360,000000	-0,000200
359,000000	-0,000900
358,000000	-0,003700
357,000000	-0,001500
356,000000	-0,001900
355,000000	-0,001300
354,000000	-0,000000
353,000000	-0,001900
352,000000	-0,005200
351,000000	-0,003400
350,000000	-0,002900
