PE UV       SUBTECH     SPECTRUM    ASCII       PEDS        4.00        
   -1
Sample4792.Sample.asc
23/08/31
22:35:42.00
23/08/31
22:35:42.00
Analyst

350,000000
1
Lambda 850
850N4111301
PerkinElmer UV WinLab 6.4.0.971 / 1.61.00 Lambda 800

0
0
2
0
0
VIS
1
1
1
RBeamAtt,SBeamAtt,150mm sphere / downward view
0
0
0
0
Fix
 
0
0,2
0
30
0
 
 
 
0
 
0
150
0
Front
100
 
S:100 R:100
 
0
0
0
 
0
 
 
 
0
 
 
0
0
0
0
0
 
 
 
 
0
0


0
0
#HDR
-1
-1
#GR
nm
EGY
1.0
0.0
850,000000
-1,000000
501
8
0,491200
0,005400
#DATA
850,000000	0,005400
849,000000	0,006200
848,000000	0,005900
847,000000	0,007300
846,000000	0,007200
845,000000	0,009400
844,000000	0,011200
843,000000	0,012800
842,000000	0,011600
841,000000	0,012400
840,000000	0,016600
839,000000	0,017200
838,000000	0,016900
837,000000	0,020400
836,000000	0,020900
835,000000	0,021100
834,000000	0,024200
833,000000	0,026200
832,000000	0,026800
831,000000	0,029000
830,000000	0,030400
829,000000	0,032100
828,000000	0,034100
827,000000	0,035800
826,000000	0,038100
825,000000	0,037700
824,000000	0,038900
823,000000	0,043600
822,000000	0,041400
821,000000	0,042800
820,000000	0,044900
819,000000	0,045100
818,000000	0,045100
817,000000	0,046900
816,000000	0,047600
815,000000	0,048100
814,000000	0,048800
813,000000	0,050200
812,000000	0,049500
811,000000	0,050700
810,000000	0,051400
809,000000	0,056800
808,000000	0,059000
807,000000	0,060200
806,000000	0,059300
805,000000	0,062500
804,000000	0,062500
803,000000	0,063100
802,000000	0,064600
801,000000	0,066100
800,000000	0,064500
799,000000	0,066800
798,000000	0,067800
797,000000	0,067900
796,000000	0,067900
795,000000	0,069600
794,000000	0,069900
793,000000	0,070600
792,000000	0,071700
791,000000	0,073100
790,000000	0,072900
789,000000	0,074500
788,000000	0,074900
787,000000	0,076000
786,000000	0,076900
785,000000	0,078400
784,000000	0,078800
783,000000	0,078500
782,000000	0,080200
781,000000	0,082000
780,000000	0,082300
779,000000	0,082700
778,000000	0,085000
777,000000	0,085900
776,000000	0,084900
775,000000	0,087200
774,000000	0,088700
773,000000	0,088700
772,000000	0,089500
771,000000	0,091100
770,000000	0,091100
769,000000	0,093200
768,000000	0,094600
767,000000	0,095200
766,000000	0,095300
765,000000	0,096200
764,000000	0,097600
763,000000	0,098800
762,000000	0,098700
761,000000	0,100600
760,000000	0,100700
759,000000	0,101300
758,000000	0,104000
757,000000	0,105800
756,000000	0,106100
755,000000	0,106900
754,000000	0,108300
753,000000	0,108800
752,000000	0,110700
751,000000	0,113300
750,000000	0,114400
749,000000	0,114900
748,000000	0,116300
747,000000	0,118300
746,000000	0,118000
745,000000	0,119500
744,000000	0,122700
743,000000	0,123700
742,000000	0,124000
741,000000	0,125400
740,000000	0,126900
739,000000	0,128900
738,000000	0,130300
737,000000	0,131800
736,000000	0,132300
735,000000	0,134100
734,000000	0,137300
733,000000	0,139700
732,000000	0,140100
731,000000	0,141700
730,000000	0,142800
729,000000	0,142700
728,000000	0,144900
727,000000	0,150200
726,000000	0,151900
725,000000	0,151600
724,000000	0,152900
723,000000	0,155500
722,000000	0,157600
721,000000	0,160400
720,000000	0,162600
719,000000	0,164100
718,000000	0,166200
717,000000	0,168900
716,000000	0,170900
715,000000	0,173800
714,000000	0,177300
713,000000	0,178300
712,000000	0,178400
711,000000	0,180300
710,000000	0,183400
709,000000	0,186600
708,000000	0,188100
707,000000	0,188700
706,000000	0,189800
705,000000	0,191100
704,000000	0,194300
703,000000	0,198700
702,000000	0,199900
701,000000	0,200800
700,000000	0,202900
699,000000	0,204500
698,000000	0,206400
697,000000	0,210300
696,000000	0,212400
695,000000	0,211700
694,000000	0,213200
693,000000	0,215900
692,000000	0,218000
691,000000	0,220700
690,000000	0,223100
689,000000	0,232200
688,000000	0,239000
687,000000	0,241500
686,000000	0,245300
685,000000	0,250500
684,000000	0,254800
683,000000	0,257900
682,000000	0,260100
681,000000	0,264000
680,000000	0,267700
679,000000	0,272300
678,000000	0,276600
677,000000	0,279400
676,000000	0,280600
675,000000	0,283600
674,000000	0,285900
673,000000	0,289600
672,000000	0,295000
671,000000	0,298100
670,000000	0,297700
669,000000	0,300900
668,000000	0,304500
667,000000	0,308000
666,000000	0,312600
665,000000	0,316100
664,000000	0,316400
663,000000	0,318600
662,000000	0,322700
661,000000	0,328700
660,000000	0,331900
659,000000	0,334800
658,000000	0,336400
657,000000	0,337900
656,000000	0,340200
655,000000	0,347800
654,000000	0,351400
653,000000	0,352900
652,000000	0,355000
651,000000	0,356800
650,000000	0,359900
649,000000	0,365100
648,000000	0,369200
647,000000	0,371900
646,000000	0,372000
645,000000	0,374600
644,000000	0,378800
643,000000	0,384000
642,000000	0,387500
641,000000	0,391200
640,000000	0,391000
639,000000	0,392700
638,000000	0,396800
637,000000	0,402300
636,000000	0,404100
635,000000	0,407500
634,000000	0,408300
633,000000	0,409900
632,000000	0,413000
631,000000	0,418600
630,000000	0,421800
629,000000	0,423900
628,000000	0,426000
627,000000	0,427800
626,000000	0,430100
625,000000	0,435200
624,000000	0,438400
623,000000	0,439400
622,000000	0,441100
621,000000	0,443000
620,000000	0,446100
619,000000	0,448700
618,000000	0,452800
617,000000	0,454900
616,000000	0,453100
615,000000	0,455800
614,000000	0,457400
613,000000	0,462500
612,000000	0,464200
611,000000	0,466900
610,000000	0,468100
609,000000	0,466300
608,000000	0,470200
607,000000	0,474600
606,000000	0,475300
605,000000	0,476800
604,000000	0,478700
603,000000	0,477000
602,000000	0,478400
601,000000	0,481900
600,000000	0,484300
599,000000	0,484300
598,000000	0,485500
597,000000	0,483300
596,000000	0,485800
595,000000	0,487200
594,000000	0,489200
593,000000	0,489000
592,000000	0,488900
591,000000	0,487100
590,000000	0,490200
589,000000	0,488800
588,000000	0,489500
587,000000	0,491200
586,000000	0,486900
585,000000	0,487000
584,000000	0,486300
583,000000	0,490800
582,000000	0,489200
581,000000	0,487900
580,000000	0,488700
579,000000	0,483200
578,000000	0,484600
577,000000	0,483700
576,000000	0,481700
575,000000	0,480400
574,000000	0,480600
573,000000	0,473800
572,000000	0,473100
571,000000	0,470100
570,000000	0,468500
569,000000	0,464300
568,000000	0,460400
567,000000	0,452900
566,000000	0,450500
565,000000	0,443100
564,000000	0,437700
563,000000	0,431600
562,000000	0,423800
561,000000	0,395500
560,000000	0,396700
559,000000	0,395200
558,000000	0,400500
557,000000	0,397800
556,000000	0,400000
555,000000	0,400000
554,000000	0,401500
553,000000	0,396400
552,000000	0,402100
551,000000	0,398300
550,000000	0,399200
549,000000	0,399200
548,000000	0,399400
547,000000	0,395800
546,000000	0,393800
545,000000	0,395400
544,000000	0,391100
543,000000	0,389300
542,000000	0,389400
541,000000	0,387200
540,000000	0,382100
539,000000	0,381600
538,000000	0,378600
537,000000	0,376700
536,000000	0,372900
535,000000	0,371900
534,000000	0,365400
533,000000	0,365700
532,000000	0,361900
531,000000	0,360500
530,000000	0,355500
529,000000	0,352900
528,000000	0,348300
527,000000	0,346800
526,000000	0,341100
525,000000	0,340200
524,000000	0,336500
523,000000	0,332100
522,000000	0,326800
521,000000	0,326400
520,000000	0,321600
519,000000	0,318200
518,000000	0,316500
517,000000	0,312700
516,000000	0,308000
515,000000	0,308700
514,000000	0,304800
513,000000	0,301700
512,000000	0,299600
511,000000	0,297800
510,000000	0,293600
509,000000	0,292100
508,000000	0,291000
507,000000	0,291400
506,000000	0,288900
505,000000	0,286900
504,000000	0,286300
503,000000	0,287000
502,000000	0,285100
501,000000	0,288200
500,000000	0,288500
499,000000	0,289600
498,000000	0,293700
497,000000	0,295200
496,000000	0,297300
495,000000	0,302400
494,000000	0,307300
493,000000	0,311300
492,000000	0,317200
491,000000	0,322300
490,000000	0,329100
489,000000	0,337500
488,000000	0,345400
487,000000	0,353700
486,000000	0,362100
485,000000	0,367300
484,000000	0,375700
483,000000	0,383200
482,000000	0,385600
481,000000	0,385300
480,000000	0,378600
479,000000	0,375300
478,000000	0,370200
477,000000	0,367700
476,000000	0,363700
475,000000	0,359900
474,000000	0,359300
473,000000	0,353300
472,000000	0,348200
471,000000	0,347700
470,000000	0,344700
469,000000	0,340500
468,000000	0,338000
467,000000	0,332300
466,000000	0,327100
465,000000	0,326300
464,000000	0,323300
463,000000	0,319300
462,000000	0,315700
461,000000	0,310700
460,000000	0,307300
459,000000	0,305800
458,000000	0,301700
457,000000	0,300200
456,000000	0,298500
455,000000	0,293000
454,000000	0,290900
453,000000	0,290800
452,000000	0,287800
451,000000	0,286500
450,000000	0,285500
449,000000	0,280200
448,000000	0,278500
447,000000	0,279500
446,000000	0,277800
445,000000	0,276900
444,000000	0,278300
443,000000	0,277700
442,000000	0,275500
441,000000	0,276300
440,000000	0,276700
439,000000	0,275800
438,000000	0,273800
437,000000	0,270700
436,000000	0,268700
435,000000	0,268800
434,000000	0,267800
433,000000	0,266400
432,000000	0,263400
431,000000	0,260100
430,000000	0,258600
429,000000	0,258300
428,000000	0,255700
427,000000	0,254300
426,000000	0,252200
425,000000	0,247100
424,000000	0,245000
423,000000	0,245200
422,000000	0,242200
421,000000	0,238800
420,000000	0,235800
419,000000	0,232300
418,000000	0,229900
417,000000	0,229300
416,000000	0,226800
415,000000	0,222400
414,000000	0,218300
413,000000	0,214900
412,000000	0,212500
411,000000	0,209800
410,000000	0,207400
409,000000	0,203700
408,000000	0,197700
407,000000	0,192700
406,000000	0,190700
405,000000	0,188500
404,000000	0,184100
403,000000	0,179700
402,000000	0,174800
401,000000	0,169400
400,000000	0,167000
399,000000	0,165100
398,000000	0,160600
397,000000	0,156700
396,000000	0,153000
395,000000	0,147600
394,000000	0,144500
393,000000	0,143600
392,000000	0,139900
391,000000	0,135200
390,000000	0,132000
389,000000	0,128400
388,000000	0,125800
387,000000	0,124000
386,000000	0,120400
385,000000	0,117100
384,000000	0,113300
383,000000	0,109300
382,000000	0,108400
381,000000	0,107000
380,000000	0,103500
379,000000	0,100900
378,000000	0,048200
377,000000	0,008000
376,000000	0,008600
375,000000	0,010800
374,000000	0,011500
373,000000	0,013100
372,000000	0,015700
371,000000	0,015900
370,000000	0,015100
369,000000	0,014500
368,000000	0,015100
367,000000	0,017000
366,000000	0,016600
365,000000	0,016600
364,000000	0,018500
363,000000	0,016700
362,000000	0,013900
361,000000	0,015100
360,000000	0,016000
359,000000	0,013200
358,000000	0,012800
357,000000	0,012200
356,000000	0,011900
355,000000	0,013600
354,000000	0,014200
353,000000	0,011000
352,000000	0,009400
351,000000	0,009800
350,000000	0,009300
