PE UV       SUBTECH     SPECTRUM    ASCII       PEDS        4.00        
   -1
Sample4797.Sample.asc
23/08/31
23:03:02.00
23/08/31
23:03:02.00
Analyst

350,000000
1
Lambda 850
850N4111301
PerkinElmer UV WinLab 6.4.0.971 / 1.61.00 Lambda 800

0
0
2
0
0
VIS
1
1
1
RBeamAtt,SBeamAtt,150mm sphere / downward view
0
0
0
0
Fix
 
0
0,2
0
30
0
 
 
 
0
 
0
150
0
Front
100
 
S:100 R:100
 
0
0
0
 
0
 
 
 
0
 
 
0
0
0
0
0
 
 
 
 
0
0


0
0
#HDR
-1
-1
#GR
nm
EGY
1.0
0.0
850,000000
-1,000000
501
8
0,042200
-0,005400
#DATA
850,000000	-0,002700
849,000000	-0,003600
848,000000	-0,005000
847,000000	-0,004200
846,000000	-0,005400
845,000000	-0,001600
844,000000	0,000000
843,000000	-0,001500
842,000000	-0,004200
841,000000	-0,000200
840,000000	-0,001900
839,000000	-0,000800
838,000000	-0,000200
837,000000	0,000000
836,000000	-0,001100
835,000000	-0,001800
834,000000	-0,001700
833,000000	0,001100
832,000000	0,000500
831,000000	-0,000700
830,000000	-0,000300
829,000000	-0,000900
828,000000	-0,001800
827,000000	0,001900
826,000000	0,000300
825,000000	-0,000900
824,000000	-0,000400
823,000000	0,001200
822,000000	-0,000500
821,000000	0,001400
820,000000	0,003400
819,000000	0,000600
818,000000	-0,000700
817,000000	0,001700
816,000000	0,001300
815,000000	0,001700
814,000000	0,001500
813,000000	0,001500
812,000000	0,000500
811,000000	0,001300
810,000000	0,001000
809,000000	0,001300
808,000000	0,002800
807,000000	0,002000
806,000000	0,001200
805,000000	0,001900
804,000000	0,002000
803,000000	0,002400
802,000000	0,002900
801,000000	0,000800
800,000000	0,001200
799,000000	0,004000
798,000000	0,004200
797,000000	0,001500
796,000000	0,001500
795,000000	0,003200
794,000000	0,002700
793,000000	0,002900
792,000000	0,002700
791,000000	0,002900
790,000000	0,002500
789,000000	0,003100
788,000000	0,003900
787,000000	0,004200
786,000000	0,003800
785,000000	0,004000
784,000000	0,002800
783,000000	0,002100
782,000000	0,004000
781,000000	0,004800
780,000000	0,003300
779,000000	0,004200
778,000000	0,004100
777,000000	0,002600
776,000000	0,001900
775,000000	0,004600
774,000000	0,004800
773,000000	0,003600
772,000000	0,002000
771,000000	0,003700
770,000000	0,003800
769,000000	0,004700
768,000000	0,005300
767,000000	0,003800
766,000000	0,003000
765,000000	0,004500
764,000000	0,005300
763,000000	0,005800
762,000000	0,006600
761,000000	0,006400
760,000000	0,003400
759,000000	0,003200
758,000000	0,004200
757,000000	0,005700
756,000000	0,005600
755,000000	0,005300
754,000000	0,004200
753,000000	0,004200
752,000000	0,004000
751,000000	0,006100
750,000000	0,005500
749,000000	0,006300
748,000000	0,006200
747,000000	0,005600
746,000000	0,005100
745,000000	0,007200
744,000000	0,007700
743,000000	0,005600
742,000000	0,003900
741,000000	0,006200
740,000000	0,006500
739,000000	0,007200
738,000000	0,008100
737,000000	0,007000
736,000000	0,004500
735,000000	0,005800
734,000000	0,006900
733,000000	0,008800
732,000000	0,009000
731,000000	0,007700
730,000000	0,006200
729,000000	0,007000
728,000000	0,008100
727,000000	0,010400
726,000000	0,009400
725,000000	0,007300
724,000000	0,007400
723,000000	0,008300
722,000000	0,009200
721,000000	0,011600
720,000000	0,010600
719,000000	0,008600
718,000000	0,008000
717,000000	0,009300
716,000000	0,009700
715,000000	0,012200
714,000000	0,012900
713,000000	0,010600
712,000000	0,009500
711,000000	0,010800
710,000000	0,012000
709,000000	0,012400
708,000000	0,012300
707,000000	0,012000
706,000000	0,011100
705,000000	0,011300
704,000000	0,012700
703,000000	0,014200
702,000000	0,013900
701,000000	0,012900
700,000000	0,011600
699,000000	0,011500
698,000000	0,014200
697,000000	0,016400
696,000000	0,015500
695,000000	0,013400
694,000000	0,013100
693,000000	0,013400
692,000000	0,013900
691,000000	0,015800
690,000000	0,016700
689,000000	0,017100
688,000000	0,015500
687,000000	0,014300
686,000000	0,017800
685,000000	0,019500
684,000000	0,018200
683,000000	0,018300
682,000000	0,018700
681,000000	0,018200
680,000000	0,018800
679,000000	0,020000
678,000000	0,020200
677,000000	0,020400
676,000000	0,020700
675,000000	0,019000
674,000000	0,019700
673,000000	0,021700
672,000000	0,023000
671,000000	0,022700
670,000000	0,021900
669,000000	0,021400
668,000000	0,022400
667,000000	0,022900
666,000000	0,023700
665,000000	0,025100
664,000000	0,023600
663,000000	0,021100
662,000000	0,023600
661,000000	0,025000
660,000000	0,024900
659,000000	0,026300
658,000000	0,025000
657,000000	0,023800
656,000000	0,025400
655,000000	0,028000
654,000000	0,027000
653,000000	0,026200
652,000000	0,026500
651,000000	0,026000
650,000000	0,025600
649,000000	0,028200
648,000000	0,029300
647,000000	0,028900
646,000000	0,028200
645,000000	0,027900
644,000000	0,028000
643,000000	0,029800
642,000000	0,031400
641,000000	0,031300
640,000000	0,028300
639,000000	0,029400
638,000000	0,030100
637,000000	0,031700
636,000000	0,032200
635,000000	0,033300
634,000000	0,032600
633,000000	0,029200
632,000000	0,031000
631,000000	0,033600
630,000000	0,033700
629,000000	0,033600
628,000000	0,034500
627,000000	0,031800
626,000000	0,033400
625,000000	0,035000
624,000000	0,034900
623,000000	0,034700
622,000000	0,036200
621,000000	0,034300
620,000000	0,035100
619,000000	0,035100
618,000000	0,036700
617,000000	0,037600
616,000000	0,037200
615,000000	0,036300
614,000000	0,037500
613,000000	0,035600
612,000000	0,036800
611,000000	0,038000
610,000000	0,039000
609,000000	0,035600
608,000000	0,039000
607,000000	0,038000
606,000000	0,037700
605,000000	0,039000
604,000000	0,041400
603,000000	0,036000
602,000000	0,038800
601,000000	0,040100
600,000000	0,039200
599,000000	0,039200
598,000000	0,041300
597,000000	0,037200
596,000000	0,039700
595,000000	0,038800
594,000000	0,040000
593,000000	0,039600
592,000000	0,040600
591,000000	0,038100
590,000000	0,041100
589,000000	0,039100
588,000000	0,040200
587,000000	0,040600
586,000000	0,040500
585,000000	0,037400
584,000000	0,042200
583,000000	0,040000
582,000000	0,038000
581,000000	0,039100
580,000000	0,041900
579,000000	0,037200
578,000000	0,040500
577,000000	0,039800
576,000000	0,040000
575,000000	0,038600
574,000000	0,038400
573,000000	0,035600
572,000000	0,037600
571,000000	0,040000
570,000000	0,039200
569,000000	0,037500
568,000000	0,037800
567,000000	0,034200
566,000000	0,037700
565,000000	0,035100
564,000000	0,035200
563,000000	0,034900
562,000000	0,034500
561,000000	0,031000
560,000000	0,031600
559,000000	0,031400
558,000000	0,032500
557,000000	0,030100
556,000000	0,033800
555,000000	0,033900
554,000000	0,030900
553,000000	0,030700
552,000000	0,033000
551,000000	0,031500
550,000000	0,032300
549,000000	0,033500
548,000000	0,031600
547,000000	0,031300
546,000000	0,032400
545,000000	0,032900
544,000000	0,030700
543,000000	0,031200
542,000000	0,033700
541,000000	0,032000
540,000000	0,031500
539,000000	0,030600
538,000000	0,030400
537,000000	0,031300
536,000000	0,030900
535,000000	0,030400
534,000000	0,030900
533,000000	0,027800
532,000000	0,027300
531,000000	0,029000
530,000000	0,029500
529,000000	0,028700
528,000000	0,030600
527,000000	0,025700
526,000000	0,025000
525,000000	0,029000
524,000000	0,027500
523,000000	0,025300
522,000000	0,027700
521,000000	0,025500
520,000000	0,022700
519,000000	0,025700
518,000000	0,026100
517,000000	0,024300
516,000000	0,025600
515,000000	0,023500
514,000000	0,021700
513,000000	0,023800
512,000000	0,023400
511,000000	0,023700
510,000000	0,023300
509,000000	0,021300
508,000000	0,020800
507,000000	0,023000
506,000000	0,023100
505,000000	0,023200
504,000000	0,023100
503,000000	0,020900
502,000000	0,019500
501,000000	0,023000
500,000000	0,023500
499,000000	0,022200
498,000000	0,019800
497,000000	0,023200
496,000000	0,022300
495,000000	0,024900
494,000000	0,024700
493,000000	0,023400
492,000000	0,024800
491,000000	0,024200
490,000000	0,023500
489,000000	0,026700
488,000000	0,028800
487,000000	0,027900
486,000000	0,028400
485,000000	0,027900
484,000000	0,028300
483,000000	0,031000
482,000000	0,030900
481,000000	0,032200
480,000000	0,031100
479,000000	0,028200
478,000000	0,027900
477,000000	0,031100
476,000000	0,030000
475,000000	0,029800
474,000000	0,029200
473,000000	0,026700
472,000000	0,026200
471,000000	0,030000
470,000000	0,029800
469,000000	0,027600
468,000000	0,025800
467,000000	0,024300
466,000000	0,023900
465,000000	0,025600
464,000000	0,026800
463,000000	0,025200
462,000000	0,023900
461,000000	0,023900
460,000000	0,023100
459,000000	0,023700
458,000000	0,024600
457,000000	0,023900
456,000000	0,021800
455,000000	0,021100
454,000000	0,022500
453,000000	0,023700
452,000000	0,023400
451,000000	0,022500
450,000000	0,021600
449,000000	0,019300
448,000000	0,020200
447,000000	0,022800
446,000000	0,022100
445,000000	0,021600
444,000000	0,021500
443,000000	0,020400
442,000000	0,021100
441,000000	0,023100
440,000000	0,022700
439,000000	0,020500
438,000000	0,019100
437,000000	0,019000
436,000000	0,020200
435,000000	0,021600
434,000000	0,020800
433,000000	0,019900
432,000000	0,018600
431,000000	0,017900
430,000000	0,019900
429,000000	0,020800
428,000000	0,020000
427,000000	0,019300
426,000000	0,018000
425,000000	0,017300
424,000000	0,019600
423,000000	0,020800
422,000000	0,017900
421,000000	0,016100
420,000000	0,017000
419,000000	0,016400
418,000000	0,017000
417,000000	0,017900
416,000000	0,016300
415,000000	0,015300
414,000000	0,015300
413,000000	0,014200
412,000000	0,014800
411,000000	0,017100
410,000000	0,015300
409,000000	0,012600
408,000000	0,012100
407,000000	0,014300
406,000000	0,016800
405,000000	0,015000
404,000000	0,012400
403,000000	0,012000
402,000000	0,011800
401,000000	0,010400
400,000000	0,011100
399,000000	0,011800
398,000000	0,011300
397,000000	0,012400
396,000000	0,011800
395,000000	0,008700
394,000000	0,009400
393,000000	0,011500
392,000000	0,010500
391,000000	0,008700
390,000000	0,007800
389,000000	0,006800
388,000000	0,006700
387,000000	0,008600
386,000000	0,007300
385,000000	0,005400
384,000000	0,005200
383,000000	0,006500
382,000000	0,007200
381,000000	0,006500
380,000000	0,006700
379,000000	0,006200
378,000000	0,000800
377,000000	-0,004900
376,000000	-0,004800
375,000000	-0,001800
374,000000	-0,001600
373,000000	-0,002100
372,000000	-0,000500
371,000000	-0,000800
370,000000	-0,003000
369,000000	-0,003800
368,000000	-0,001800
367,000000	-0,000900
366,000000	-0,000900
365,000000	-0,001200
364,000000	-0,002500
363,000000	-0,001800
362,000000	-0,002100
361,000000	-0,000900
360,000000	-0,000100
359,000000	-0,002100
358,000000	-0,004400
357,000000	-0,002500
356,000000	-0,002600
355,000000	-0,001100
354,000000	-0,000200
353,000000	-0,004300
352,000000	-0,004900
351,000000	-0,004300
350,000000	-0,002600
