PE UV       SUBTECH     SPECTRUM    ASCII       PEDS        4.00        
   -1
Sample4803.Sample.asc
23/08/31
23:40:47.00
23/08/31
23:40:47.00
Analyst

350,000000
1
Lambda 850
850N4111301
PerkinElmer UV WinLab 6.4.0.971 / 1.61.00 Lambda 800

0
0
2
0
0
VIS
1
1
1
RBeamAtt,SBeamAtt,150mm sphere / downward view
0
0
0
0
Fix
 
0
0,2
0
30
0
 
 
 
0
 
0
150
0
Front
100
 
S:100 R:100
 
0
0
0
 
0
 
 
 
0
 
 
0
0
0
0
0
 
 
 
 
0
0


0
0
#HDR
-1
-1
#GR
nm
EGY
1.0
0.0
850,000000
-1,000000
501
8
0,036300
-0,006200
#DATA
850,000000	-0,003400
849,000000	-0,003400
848,000000	-0,003900
847,000000	-0,003500
846,000000	-0,006200
845,000000	-0,000700
844,000000	-0,000600
843,000000	-0,001300
842,000000	-0,003000
841,000000	-0,000500
840,000000	-0,003100
839,000000	0,000300
838,000000	0,000400
837,000000	-0,001700
836,000000	-0,002100
835,000000	0,000500
834,000000	-0,002400
833,000000	-0,001200
832,000000	0,001200
831,000000	0,000200
830,000000	-0,001000
829,000000	0,000600
828,000000	-0,002100
827,000000	0,000900
826,000000	0,000600
825,000000	0,000500
824,000000	0,002200
823,000000	-0,000300
822,000000	0,000700
821,000000	0,002000
820,000000	0,001100
819,000000	-0,000300
818,000000	0,002200
817,000000	0,000700
816,000000	-0,000100
815,000000	0,001300
814,000000	0,001700
813,000000	0,001900
812,000000	0,000700
811,000000	0,000700
810,000000	0,000700
809,000000	0,002300
808,000000	0,000700
807,000000	0,000800
806,000000	0,000400
805,000000	0,002300
804,000000	0,002400
803,000000	0,002700
802,000000	0,002300
801,000000	0,002200
800,000000	0,002700
799,000000	0,003400
798,000000	0,002500
797,000000	0,003100
796,000000	0,003500
795,000000	0,002100
794,000000	0,000600
793,000000	0,004100
792,000000	0,003900
791,000000	0,002700
790,000000	0,002500
789,000000	0,002600
788,000000	0,000400
787,000000	0,002800
786,000000	0,003500
785,000000	0,003900
784,000000	0,002700
783,000000	0,002800
782,000000	0,004000
781,000000	0,004000
780,000000	0,003700
779,000000	0,004200
778,000000	0,003600
777,000000	0,002800
776,000000	0,003600
775,000000	0,004200
774,000000	0,004500
773,000000	0,003500
772,000000	0,002700
771,000000	0,003100
770,000000	0,001900
769,000000	0,005400
768,000000	0,005100
767,000000	0,003800
766,000000	0,003800
765,000000	0,004900
764,000000	0,003000
763,000000	0,005800
762,000000	0,007100
761,000000	0,004600
760,000000	0,002300
759,000000	0,004900
758,000000	0,004200
757,000000	0,005400
756,000000	0,005500
755,000000	0,004900
754,000000	0,003700
753,000000	0,003600
752,000000	0,004500
751,000000	0,006000
750,000000	0,006500
749,000000	0,006400
748,000000	0,004300
747,000000	0,004200
746,000000	0,005400
745,000000	0,007900
744,000000	0,007300
743,000000	0,005900
742,000000	0,005500
741,000000	0,006000
740,000000	0,005400
739,000000	0,007200
738,000000	0,007800
737,000000	0,005900
736,000000	0,004700
735,000000	0,006400
734,000000	0,005800
733,000000	0,007700
732,000000	0,009100
731,000000	0,007600
730,000000	0,005900
729,000000	0,007400
728,000000	0,007200
727,000000	0,009100
726,000000	0,009600
725,000000	0,008300
724,000000	0,006800
723,000000	0,006900
722,000000	0,008100
721,000000	0,010700
720,000000	0,009800
719,000000	0,008000
718,000000	0,007600
717,000000	0,008000
716,000000	0,009700
715,000000	0,012000
714,000000	0,011300
713,000000	0,008900
712,000000	0,008300
711,000000	0,009300
710,000000	0,010900
709,000000	0,011900
708,000000	0,011600
707,000000	0,010800
706,000000	0,008600
705,000000	0,009200
704,000000	0,012000
703,000000	0,012300
702,000000	0,011800
701,000000	0,011000
700,000000	0,009000
699,000000	0,009800
698,000000	0,013300
697,000000	0,013400
696,000000	0,012800
695,000000	0,012000
694,000000	0,009900
693,000000	0,009800
692,000000	0,011200
691,000000	0,012800
690,000000	0,011800
689,000000	0,010800
688,000000	0,010100
687,000000	0,009800
686,000000	0,011500
685,000000	0,012400
684,000000	0,012400
683,000000	0,012700
682,000000	0,012300
681,000000	0,010600
680,000000	0,010200
679,000000	0,012600
678,000000	0,013100
677,000000	0,013100
676,000000	0,013300
675,000000	0,010900
674,000000	0,012400
673,000000	0,015000
672,000000	0,013800
671,000000	0,015100
670,000000	0,016300
669,000000	0,014400
668,000000	0,015600
667,000000	0,015400
666,000000	0,016100
665,000000	0,017400
664,000000	0,015000
663,000000	0,014700
662,000000	0,017000
661,000000	0,017900
660,000000	0,019500
659,000000	0,020100
658,000000	0,018100
657,000000	0,017500
656,000000	0,019200
655,000000	0,020100
654,000000	0,020000
653,000000	0,021600
652,000000	0,021500
651,000000	0,019100
650,000000	0,021500
649,000000	0,022100
648,000000	0,022200
647,000000	0,022300
646,000000	0,022500
645,000000	0,021200
644,000000	0,022200
643,000000	0,024600
642,000000	0,024900
641,000000	0,023800
640,000000	0,026000
639,000000	0,024500
638,000000	0,024600
637,000000	0,025200
636,000000	0,027000
635,000000	0,026800
634,000000	0,026000
633,000000	0,024100
632,000000	0,026300
631,000000	0,027500
630,000000	0,027100
629,000000	0,027900
628,000000	0,028900
627,000000	0,025300
626,000000	0,028100
625,000000	0,028300
624,000000	0,027500
623,000000	0,029400
622,000000	0,026900
621,000000	0,026500
620,000000	0,026800
619,000000	0,031100
618,000000	0,030300
617,000000	0,030400
616,000000	0,030300
615,000000	0,030100
614,000000	0,029800
613,000000	0,030300
612,000000	0,030800
611,000000	0,030900
610,000000	0,031100
609,000000	0,029000
608,000000	0,031700
607,000000	0,031700
606,000000	0,032500
605,000000	0,033300
604,000000	0,033500
603,000000	0,030900
602,000000	0,033700
601,000000	0,032800
600,000000	0,032500
599,000000	0,033500
598,000000	0,035800
597,000000	0,030200
596,000000	0,033200
595,000000	0,032800
594,000000	0,033100
593,000000	0,034100
592,000000	0,034100
591,000000	0,030500
590,000000	0,031900
589,000000	0,035500
588,000000	0,034400
587,000000	0,034300
586,000000	0,035100
585,000000	0,032600
584,000000	0,036300
583,000000	0,032400
582,000000	0,035600
581,000000	0,034100
580,000000	0,034700
579,000000	0,031200
578,000000	0,036000
577,000000	0,032600
576,000000	0,034100
575,000000	0,034700
574,000000	0,033000
573,000000	0,032500
572,000000	0,033600
571,000000	0,035000
570,000000	0,032500
569,000000	0,032900
568,000000	0,034800
567,000000	0,030500
566,000000	0,032000
565,000000	0,030400
564,000000	0,031600
563,000000	0,030000
562,000000	0,030200
561,000000	0,026400
560,000000	0,029100
559,000000	0,028300
558,000000	0,026800
557,000000	0,027600
556,000000	0,030800
555,000000	0,027400
554,000000	0,030200
553,000000	0,024500
552,000000	0,029300
551,000000	0,027800
550,000000	0,028600
549,000000	0,029200
548,000000	0,028000
547,000000	0,028100
546,000000	0,031400
545,000000	0,026900
544,000000	0,024800
543,000000	0,030600
542,000000	0,028600
541,000000	0,025600
540,000000	0,029700
539,000000	0,027400
538,000000	0,023900
537,000000	0,026700
536,000000	0,027400
535,000000	0,027800
534,000000	0,022600
533,000000	0,026900
532,000000	0,023900
531,000000	0,025200
530,000000	0,026100
529,000000	0,024200
528,000000	0,024900
527,000000	0,023300
526,000000	0,021100
525,000000	0,024000
524,000000	0,023300
523,000000	0,021700
522,000000	0,025200
521,000000	0,020400
520,000000	0,018000
519,000000	0,022300
518,000000	0,020300
517,000000	0,018800
516,000000	0,021700
515,000000	0,017500
514,000000	0,015900
513,000000	0,019700
512,000000	0,018600
511,000000	0,017900
510,000000	0,018200
509,000000	0,016700
508,000000	0,015200
507,000000	0,016400
506,000000	0,017000
505,000000	0,016200
504,000000	0,016200
503,000000	0,014600
502,000000	0,013500
501,000000	0,015100
500,000000	0,015100
499,000000	0,014700
498,000000	0,015600
497,000000	0,013700
496,000000	0,014300
495,000000	0,016500
494,000000	0,015900
493,000000	0,015900
492,000000	0,017000
491,000000	0,015700
490,000000	0,014600
489,000000	0,018300
488,000000	0,017800
487,000000	0,015900
486,000000	0,016600
485,000000	0,016400
484,000000	0,015800
483,000000	0,019700
482,000000	0,020000
481,000000	0,019700
480,000000	0,019300
479,000000	0,017900
478,000000	0,018000
477,000000	0,018200
476,000000	0,019700
475,000000	0,018900
474,000000	0,017600
473,000000	0,015700
472,000000	0,015400
471,000000	0,018400
470,000000	0,017800
469,000000	0,016500
468,000000	0,015800
467,000000	0,014800
466,000000	0,015800
465,000000	0,017600
464,000000	0,016300
463,000000	0,015700
462,000000	0,017600
461,000000	0,015000
460,000000	0,012300
459,000000	0,016000
458,000000	0,016100
457,000000	0,013000
456,000000	0,012100
455,000000	0,012800
454,000000	0,013000
453,000000	0,013700
452,000000	0,013400
451,000000	0,013300
450,000000	0,012100
449,000000	0,009400
448,000000	0,011000
447,000000	0,013400
446,000000	0,012200
445,000000	0,011300
444,000000	0,010900
443,000000	0,010000
442,000000	0,012500
441,000000	0,013300
440,000000	0,011900
439,000000	0,009600
438,000000	0,010700
437,000000	0,009900
436,000000	0,009700
435,000000	0,011400
434,000000	0,011300
433,000000	0,009100
432,000000	0,009600
431,000000	0,009700
430,000000	0,009300
429,000000	0,011100
428,000000	0,011200
427,000000	0,008700
426,000000	0,008100
425,000000	0,009300
424,000000	0,011600
423,000000	0,011400
422,000000	0,009600
421,000000	0,008000
420,000000	0,007700
419,000000	0,007600
418,000000	0,010000
417,000000	0,010200
416,000000	0,008200
415,000000	0,007300
414,000000	0,007500
413,000000	0,006700
412,000000	0,008000
411,000000	0,010100
410,000000	0,007700
409,000000	0,005600
408,000000	0,006700
407,000000	0,007900
406,000000	0,008600
405,000000	0,008100
404,000000	0,008500
403,000000	0,007400
402,000000	0,006100
401,000000	0,005200
400,000000	0,006300
399,000000	0,006600
398,000000	0,005000
397,000000	0,003400
396,000000	0,003400
395,000000	0,005400
394,000000	0,007600
393,000000	0,006400
392,000000	0,003600
391,000000	0,003800
390,000000	0,004000
389,000000	0,004800
388,000000	0,005500
387,000000	0,005600
386,000000	0,003500
385,000000	0,001700
384,000000	0,001900
383,000000	0,003900
382,000000	0,003900
381,000000	0,003700
380,000000	0,001800
379,000000	0,000200
378,000000	-0,002600
377,000000	-0,004100
376,000000	-0,004100
375,000000	-0,003000
374,000000	-0,002600
373,000000	-0,001300
372,000000	-0,001000
371,000000	-0,002600
370,000000	-0,003600
369,000000	-0,001200
368,000000	-0,002300
367,000000	-0,001900
366,000000	0,000500
365,000000	-0,001400
364,000000	-0,005300
363,000000	-0,002300
362,000000	-0,001700
361,000000	-0,002000
360,000000	-0,000700
359,000000	-0,001000
358,000000	-0,004600
357,000000	-0,003000
356,000000	-0,002600
355,000000	-0,001300
354,000000	-0,001700
353,000000	-0,000500
352,000000	-0,003600
351,000000	-0,002200
350,000000	-0,002600
