PE UV       SUBTECH     SPECTRUM    ASCII       PEDS        4.00        
   -1
Sample4800.Sample.asc
23/08/31
23:27:15.00
23/08/31
23:27:15.00
Analyst

350,000000
1
Lambda 850
850N4111301
PerkinElmer UV WinLab 6.4.0.971 / 1.61.00 Lambda 800

0
0
2
0
0
VIS
1
1
1
RBeamAtt,SBeamAtt,150mm sphere / downward view
0
0
0
0
Fix
 
0
0,2
0
30
0
 
 
 
0
 
0
150
0
Front
100
 
S:100 R:100
 
0
0
0
 
0
 
 
 
0
 
 
0
0
0
0
0
 
 
 
 
0
0


0
0
#HDR
-1
-1
#GR
nm
EGY
1.0
0.0
850,000000
-1,000000
501
8
0,412300
0,000700
#DATA
850,000000	0,004200
849,000000	0,006000
848,000000	0,006800
847,000000	0,007200
846,000000	0,007100
845,000000	0,010000
844,000000	0,009800
843,000000	0,011600
842,000000	0,010900
841,000000	0,013700
840,000000	0,015400
839,000000	0,015500
838,000000	0,017100
837,000000	0,019500
836,000000	0,019500
835,000000	0,021700
834,000000	0,024300
833,000000	0,024200
832,000000	0,026600
831,000000	0,029800
830,000000	0,028800
829,000000	0,030300
828,000000	0,032600
827,000000	0,033900
826,000000	0,035500
825,000000	0,036300
824,000000	0,037700
823,000000	0,040000
822,000000	0,038400
821,000000	0,041200
820,000000	0,042500
819,000000	0,042500
818,000000	0,044100
817,000000	0,046200
816,000000	0,044000
815,000000	0,045800
814,000000	0,047400
813,000000	0,048000
812,000000	0,047300
811,000000	0,049400
810,000000	0,048600
809,000000	0,055700
808,000000	0,055300
807,000000	0,057800
806,000000	0,058800
805,000000	0,058300
804,000000	0,059100
803,000000	0,060000
802,000000	0,060700
801,000000	0,061400
800,000000	0,060900
799,000000	0,063600
798,000000	0,063500
797,000000	0,063800
796,000000	0,066000
795,000000	0,065500
794,000000	0,066200
793,000000	0,068800
792,000000	0,069200
791,000000	0,068200
790,000000	0,069100
789,000000	0,072000
788,000000	0,070300
787,000000	0,071200
786,000000	0,072900
785,000000	0,073000
784,000000	0,073000
783,000000	0,074300
782,000000	0,075300
781,000000	0,077700
780,000000	0,076800
779,000000	0,078400
778,000000	0,079000
777,000000	0,079200
776,000000	0,080600
775,000000	0,082800
774,000000	0,081600
773,000000	0,083800
772,000000	0,085800
771,000000	0,084500
770,000000	0,084600
769,000000	0,088600
768,000000	0,088000
767,000000	0,087500
766,000000	0,088000
765,000000	0,088800
764,000000	0,089100
763,000000	0,091800
762,000000	0,093500
761,000000	0,093500
760,000000	0,093400
759,000000	0,095700
758,000000	0,097000
757,000000	0,097700
756,000000	0,099800
755,000000	0,101500
754,000000	0,100900
753,000000	0,101200
752,000000	0,103200
751,000000	0,105700
750,000000	0,106700
749,000000	0,107000
748,000000	0,107400
747,000000	0,108500
746,000000	0,110400
745,000000	0,112300
744,000000	0,112500
743,000000	0,114200
742,000000	0,115400
741,000000	0,115400
740,000000	0,116500
739,000000	0,120800
738,000000	0,122100
737,000000	0,121500
736,000000	0,122700
735,000000	0,125500
734,000000	0,126400
733,000000	0,128000
732,000000	0,130400
731,000000	0,131400
730,000000	0,131400
729,000000	0,132900
728,000000	0,135900
727,000000	0,138600
726,000000	0,140100
725,000000	0,141500
724,000000	0,142200
723,000000	0,143800
722,000000	0,146300
721,000000	0,149800
720,000000	0,150700
719,000000	0,151000
718,000000	0,152600
717,000000	0,153700
716,000000	0,155400
715,000000	0,159800
714,000000	0,161800
713,000000	0,160900
712,000000	0,162000
711,000000	0,163600
710,000000	0,164400
709,000000	0,167900
708,000000	0,169800
707,000000	0,168400
706,000000	0,167300
705,000000	0,168800
704,000000	0,170500
703,000000	0,170300
702,000000	0,170000
701,000000	0,169900
700,000000	0,168500
699,000000	0,166900
698,000000	0,166500
697,000000	0,167100
696,000000	0,165200
695,000000	0,161000
694,000000	0,157500
693,000000	0,154300
692,000000	0,151500
691,000000	0,149200
690,000000	0,144600
689,000000	0,144100
688,000000	0,140900
687,000000	0,137700
686,000000	0,134300
685,000000	0,131900
684,000000	0,132400
683,000000	0,132200
682,000000	0,129800
681,000000	0,129300
680,000000	0,131800
679,000000	0,135200
678,000000	0,137000
677,000000	0,139800
676,000000	0,140000
675,000000	0,140300
674,000000	0,142700
673,000000	0,146200
672,000000	0,150400
671,000000	0,153500
670,000000	0,154900
669,000000	0,158700
668,000000	0,163300
667,000000	0,171100
666,000000	0,178800
665,000000	0,183500
664,000000	0,188100
663,000000	0,194800
662,000000	0,201600
661,000000	0,208500
660,000000	0,215800
659,000000	0,221500
658,000000	0,223300
657,000000	0,227000
656,000000	0,232100
655,000000	0,237200
654,000000	0,240100
653,000000	0,244700
652,000000	0,246100
651,000000	0,246600
650,000000	0,252100
649,000000	0,258500
648,000000	0,263500
647,000000	0,268300
646,000000	0,271600
645,000000	0,276100
644,000000	0,281000
643,000000	0,288200
642,000000	0,293800
641,000000	0,297500
640,000000	0,298400
639,000000	0,301500
638,000000	0,306100
637,000000	0,310900
636,000000	0,314400
635,000000	0,317100
634,000000	0,316400
633,000000	0,318500
632,000000	0,323700
631,000000	0,324200
630,000000	0,326800
629,000000	0,330400
628,000000	0,330000
627,000000	0,329800
626,000000	0,334100
625,000000	0,337900
624,000000	0,340800
623,000000	0,342200
622,000000	0,344500
621,000000	0,344700
620,000000	0,346300
619,000000	0,354100
618,000000	0,354800
617,000000	0,357900
616,000000	0,359900
615,000000	0,361700
614,000000	0,365300
613,000000	0,368200
612,000000	0,373500
611,000000	0,374500
610,000000	0,375200
609,000000	0,376500
608,000000	0,379700
607,000000	0,383300
606,000000	0,385100
605,000000	0,388600
604,000000	0,389100
603,000000	0,387600
602,000000	0,393200
601,000000	0,394100
600,000000	0,396700
599,000000	0,397600
598,000000	0,399900
597,000000	0,397200
596,000000	0,400000
595,000000	0,402100
594,000000	0,402300
593,000000	0,403400
592,000000	0,404900
591,000000	0,402300
590,000000	0,404600
589,000000	0,405700
588,000000	0,407800
587,000000	0,407300
586,000000	0,405300
585,000000	0,407200
584,000000	0,406000
583,000000	0,409500
582,000000	0,411800
581,000000	0,412300
580,000000	0,410500
579,000000	0,407700
578,000000	0,412200
577,000000	0,409100
576,000000	0,409000
575,000000	0,410400
574,000000	0,409700
573,000000	0,406000
572,000000	0,406100
571,000000	0,403200
570,000000	0,403000
569,000000	0,399900
568,000000	0,398400
567,000000	0,390000
566,000000	0,390000
565,000000	0,385500
564,000000	0,382400
563,000000	0,374500
562,000000	0,369500
561,000000	0,345100
560,000000	0,350000
559,000000	0,345200
558,000000	0,349200
557,000000	0,350400
556,000000	0,352300
555,000000	0,350000
554,000000	0,352300
553,000000	0,351500
552,000000	0,351800
551,000000	0,348300
550,000000	0,351100
549,000000	0,350800
548,000000	0,346900
547,000000	0,347600
546,000000	0,345500
545,000000	0,343000
544,000000	0,341700
543,000000	0,340900
542,000000	0,339800
541,000000	0,334700
540,000000	0,332000
539,000000	0,333600
538,000000	0,328300
537,000000	0,327000
536,000000	0,324400
535,000000	0,320600
534,000000	0,312600
533,000000	0,315300
532,000000	0,310400
531,000000	0,304900
530,000000	0,302300
529,000000	0,299000
528,000000	0,291400
527,000000	0,289600
526,000000	0,286300
525,000000	0,281000
524,000000	0,276700
523,000000	0,272000
522,000000	0,266500
521,000000	0,260900
520,000000	0,255500
519,000000	0,252800
518,000000	0,245400
517,000000	0,237900
516,000000	0,233800
515,000000	0,230200
514,000000	0,221700
513,000000	0,217800
512,000000	0,213700
511,000000	0,206300
510,000000	0,200900
509,000000	0,196600
508,000000	0,191400
507,000000	0,186200
506,000000	0,183700
505,000000	0,178400
504,000000	0,171200
503,000000	0,171100
502,000000	0,166900
501,000000	0,162900
500,000000	0,159000
499,000000	0,158500
498,000000	0,157400
497,000000	0,151300
496,000000	0,150800
495,000000	0,150900
494,000000	0,151500
493,000000	0,150500
492,000000	0,151300
491,000000	0,150200
490,000000	0,149500
489,000000	0,156000
488,000000	0,158600
487,000000	0,158500
486,000000	0,164600
485,000000	0,165200
484,000000	0,167400
483,000000	0,172500
482,000000	0,174700
481,000000	0,175500
480,000000	0,173200
479,000000	0,170100
478,000000	0,166500
477,000000	0,167100
476,000000	0,165900
475,000000	0,164500
474,000000	0,164200
473,000000	0,159300
472,000000	0,158900
471,000000	0,159100
470,000000	0,156700
469,000000	0,155100
468,000000	0,151000
467,000000	0,151500
466,000000	0,146600
465,000000	0,146200
464,000000	0,143500
463,000000	0,140200
462,000000	0,138900
461,000000	0,135100
460,000000	0,132000
459,000000	0,132500
458,000000	0,130600
457,000000	0,128500
456,000000	0,125700
455,000000	0,123200
454,000000	0,119300
453,000000	0,117800
452,000000	0,115800
451,000000	0,113000
450,000000	0,109100
449,000000	0,104100
448,000000	0,102100
447,000000	0,100600
446,000000	0,098100
445,000000	0,095100
444,000000	0,094400
443,000000	0,090500
442,000000	0,087700
441,000000	0,090100
440,000000	0,088300
439,000000	0,087700
438,000000	0,087600
437,000000	0,084200
436,000000	0,083100
435,000000	0,086300
434,000000	0,085400
433,000000	0,083300
432,000000	0,082800
431,000000	0,083500
430,000000	0,084300
429,000000	0,085100
428,000000	0,086000
427,000000	0,084900
426,000000	0,082900
425,000000	0,082700
424,000000	0,083500
423,000000	0,084400
422,000000	0,084400
421,000000	0,083700
420,000000	0,082300
419,000000	0,080500
418,000000	0,081600
417,000000	0,083200
416,000000	0,081100
415,000000	0,080600
414,000000	0,079800
413,000000	0,078200
412,000000	0,078900
411,000000	0,080100
410,000000	0,079700
409,000000	0,077900
408,000000	0,078400
407,000000	0,078500
406,000000	0,076700
405,000000	0,077600
404,000000	0,076900
403,000000	0,075300
402,000000	0,073100
401,000000	0,071900
400,000000	0,071900
399,000000	0,071400
398,000000	0,070100
397,000000	0,069200
396,000000	0,066600
395,000000	0,063700
394,000000	0,064700
393,000000	0,064100
392,000000	0,061400
391,000000	0,059700
390,000000	0,057100
389,000000	0,055900
388,000000	0,057200
387,000000	0,057200
386,000000	0,053800
385,000000	0,051200
384,000000	0,051000
383,000000	0,049200
382,000000	0,048100
381,000000	0,048900
380,000000	0,047000
379,000000	0,044200
378,000000	0,018800
377,000000	0,000700
376,000000	0,002300
375,000000	0,003400
374,000000	0,002000
373,000000	0,004700
372,000000	0,007000
371,000000	0,004800
370,000000	0,004700
369,000000	0,004400
368,000000	0,004800
367,000000	0,005500
366,000000	0,007600
365,000000	0,005400
364,000000	0,003800
363,000000	0,004700
362,000000	0,006200
361,000000	0,007100
360,000000	0,006300
359,000000	0,005700
358,000000	0,004600
357,000000	0,003900
356,000000	0,004000
355,000000	0,005700
354,000000	0,005600
353,000000	0,004200
352,000000	0,006100
351,000000	0,004400
350,000000	0,000700
