PE UV       SUBTECH     SPECTRUM    ASCII       PEDS        4.00        
   -1
Sample4808.Sample.asc
23/09/01
00:04:55.00
23/09/01
00:04:55.00
Analyst

350,000000
1
Lambda 850
850N4111301
PerkinElmer UV WinLab 6.4.0.971 / 1.61.00 Lambda 800

0
0
2
0
0
VIS
1
1
1
RBeamAtt,SBeamAtt,150mm sphere / downward view
0
0
0
0
Fix
 
0
0,2
0
30
0
 
 
 
0
 
0
150
0
Front
100
 
S:100 R:100
 
0
0
0
 
0
 
 
 
0
 
 
0
0
0
0
0
 
 
 
 
0
0


0
0
#HDR
-1
-1
#GR
nm
EGY
1.0
0.0
850,000000
-1,000000
501
8
0,000600
-0,007600
#DATA
850,000000	-0,003800
849,000000	-0,005200
848,000000	-0,002300
847,000000	-0,005400
846,000000	-0,006400
845,000000	-0,002800
844,000000	-0,001200
843,000000	-0,003300
842,000000	-0,003400
841,000000	-0,003100
840,000000	-0,005000
839,000000	-0,002100
838,000000	-0,002600
837,000000	-0,001600
836,000000	-0,004300
835,000000	-0,003900
834,000000	-0,002200
833,000000	-0,004000
832,000000	-0,002400
831,000000	0,000100
830,000000	-0,004800
829,000000	-0,003900
828,000000	-0,004200
827,000000	-0,002700
826,000000	-0,001100
825,000000	-0,003600
824,000000	-0,004100
823,000000	-0,003000
822,000000	-0,005200
821,000000	-0,002100
820,000000	-0,001900
819,000000	-0,003400
818,000000	-0,003600
817,000000	-0,002500
816,000000	-0,007300
815,000000	-0,002300
814,000000	-0,000200
813,000000	-0,003400
812,000000	-0,003700
811,000000	-0,004800
810,000000	-0,006200
809,000000	-0,003600
808,000000	-0,005600
807,000000	-0,004000
806,000000	-0,005300
805,000000	-0,002600
804,000000	-0,002200
803,000000	-0,002300
802,000000	-0,004300
801,000000	-0,006000
800,000000	-0,005300
799,000000	-0,002700
798,000000	-0,001200
797,000000	-0,004100
796,000000	-0,005700
795,000000	-0,004700
794,000000	-0,005800
793,000000	-0,000900
792,000000	-0,002200
791,000000	-0,003300
790,000000	-0,007600
789,000000	-0,004000
788,000000	-0,005400
787,000000	-0,003200
786,000000	-0,002200
785,000000	-0,002200
784,000000	-0,007000
783,000000	-0,004100
782,000000	-0,003200
781,000000	-0,003100
780,000000	-0,002600
779,000000	-0,001700
778,000000	-0,006500
777,000000	-0,004700
776,000000	-0,003300
775,000000	-0,002400
774,000000	-0,003500
773,000000	-0,002700
772,000000	-0,003600
771,000000	-0,006100
770,000000	-0,003100
769,000000	-0,003400
768,000000	-0,001600
767,000000	-0,003200
766,000000	-0,005000
765,000000	-0,003900
764,000000	-0,003700
763,000000	-0,004000
762,000000	-0,001800
761,000000	-0,002700
760,000000	-0,002800
759,000000	-0,004200
758,000000	-0,002600
757,000000	-0,003300
756,000000	-0,001500
755,000000	-0,000700
754,000000	-0,004400
753,000000	-0,005400
752,000000	-0,003700
751,000000	-0,003100
750,000000	-0,001800
749,000000	-0,001900
748,000000	-0,003400
747,000000	-0,005300
746,000000	-0,003900
745,000000	-0,002700
744,000000	-0,002000
743,000000	-0,002000
742,000000	-0,002600
741,000000	-0,005200
740,000000	-0,004600
739,000000	-0,002800
738,000000	-0,000800
737,000000	-0,001700
736,000000	-0,004000
735,000000	-0,003900
734,000000	-0,002100
733,000000	-0,003200
732,000000	-0,001800
731,000000	-0,001500
730,000000	-0,004000
729,000000	-0,004700
728,000000	-0,003000
727,000000	-0,002900
726,000000	-0,002000
725,000000	-0,001600
724,000000	-0,004000
723,000000	-0,005100
722,000000	-0,002900
721,000000	-0,002700
720,000000	-0,002600
719,000000	-0,002900
718,000000	-0,003100
717,000000	-0,003700
716,000000	-0,003800
715,000000	-0,003300
714,000000	-0,001700
713,000000	-0,003200
712,000000	-0,004000
711,000000	-0,003800
710,000000	-0,004700
709,000000	-0,003100
708,000000	-0,000600
707,000000	-0,002700
706,000000	-0,004100
705,000000	-0,002600
704,000000	-0,004300
703,000000	-0,004900
702,000000	-0,002400
701,000000	-0,001600
700,000000	-0,002300
699,000000	-0,003800
698,000000	-0,004700
697,000000	-0,003700
696,000000	-0,002700
695,000000	-0,002400
694,000000	-0,002900
693,000000	-0,003500
692,000000	-0,004700
691,000000	-0,002800
690,000000	-0,002100
689,000000	-0,002700
688,000000	-0,003700
687,000000	-0,004700
686,000000	-0,004500
685,000000	-0,004300
684,000000	-0,002200
683,000000	-0,000400
682,000000	-0,002600
681,000000	-0,003200
680,000000	-0,004000
679,000000	-0,003400
678,000000	-0,001600
677,000000	-0,001800
676,000000	-0,001800
675,000000	-0,002800
674,000000	-0,005600
673,000000	-0,003500
672,000000	-0,001700
671,000000	-0,002000
670,000000	-0,002600
669,000000	-0,002900
668,000000	-0,005600
667,000000	-0,003400
666,000000	-0,001000
665,000000	-0,001300
664,000000	-0,003400
663,000000	-0,003300
662,000000	-0,004700
661,000000	-0,003900
660,000000	-0,002300
659,000000	-0,001400
658,000000	-0,002500
657,000000	-0,003900
656,000000	-0,004800
655,000000	-0,003600
654,000000	-0,002600
653,000000	-0,002100
652,000000	-0,003900
651,000000	-0,005900
650,000000	-0,004800
649,000000	-0,001300
648,000000	-0,001800
647,000000	-0,000900
646,000000	-0,003600
645,000000	-0,004100
644,000000	-0,006100
643,000000	-0,002700
642,000000	-0,001500
641,000000	-0,001100
640,000000	-0,005400
639,000000	-0,004600
638,000000	-0,002800
637,000000	-0,003600
636,000000	-0,001900
635,000000	-0,001700
634,000000	-0,005600
633,000000	-0,005200
632,000000	-0,002300
631,000000	-0,003400
630,000000	-0,002800
629,000000	-0,001100
628,000000	-0,003900
627,000000	-0,005600
626,000000	-0,002200
625,000000	-0,002400
624,000000	-0,003100
623,000000	-0,002500
622,000000	-0,004100
621,000000	-0,005600
620,000000	-0,003200
619,000000	-0,003100
618,000000	-0,002600
617,000000	-0,002300
616,000000	-0,003100
615,000000	-0,004300
614,000000	-0,002200
613,000000	-0,003600
612,000000	-0,000800
611,000000	-0,000600
610,000000	-0,003400
609,000000	-0,004800
608,000000	-0,001800
607,000000	-0,002700
606,000000	-0,001900
605,000000	-0,001200
604,000000	-0,005100
603,000000	-0,005600
602,000000	-0,001800
601,000000	-0,003200
600,000000	-0,002900
599,000000	-0,000200
598,000000	-0,002600
597,000000	-0,006200
596,000000	-0,001600
595,000000	-0,002600
594,000000	-0,001200
593,000000	-0,003300
592,000000	-0,000600
591,000000	-0,006100
590,000000	-0,002600
589,000000	-0,003900
588,000000	-0,001200
587,000000	-0,001600
586,000000	-0,001700
585,000000	-0,007500
584,000000	-0,001300
583,000000	-0,004900
582,000000	-0,001000
581,000000	-0,001300
580,000000	-0,003300
579,000000	-0,007300
578,000000	-0,001800
577,000000	-0,002100
576,000000	-0,003000
575,000000	0,000300
574,000000	-0,003400
573,000000	-0,007400
572,000000	-0,002900
571,000000	-0,003000
570,000000	-0,001400
569,000000	-0,002700
568,000000	-0,001700
567,000000	-0,003700
566,000000	-0,002300
565,000000	-0,003300
564,000000	-0,001300
563,000000	-0,001400
562,000000	-0,003300
561,000000	-0,006000
560,000000	-0,002300
559,000000	-0,001600
558,000000	-0,003800
557,000000	-0,002600
556,000000	-0,000700
555,000000	-0,003200
554,000000	-0,003100
553,000000	0,000300
552,000000	-0,002000
551,000000	-0,005000
550,000000	-0,001800
549,000000	-0,000700
548,000000	-0,002900
547,000000	-0,002900
546,000000	-0,002400
545,000000	-0,002700
544,000000	-0,004200
543,000000	-0,001100
542,000000	-0,001600
541,000000	-0,004800
540,000000	-0,000600
539,000000	-0,003100
538,000000	-0,003300
537,000000	-0,002600
536,000000	0,000600
535,000000	-0,004000
534,000000	-0,002200
533,000000	-0,003600
532,000000	-0,002600
531,000000	-0,002400
530,000000	-0,001400
529,000000	-0,003400
528,000000	-0,002600
527,000000	-0,003200
526,000000	-0,004000
525,000000	-0,001400
524,000000	-0,002500
523,000000	-0,002100
522,000000	-0,002100
521,000000	-0,004100
520,000000	-0,006700
519,000000	0,000300
518,000000	-0,002300
517,000000	-0,004200
516,000000	-0,002100
515,000000	-0,003400
514,000000	-0,006000
513,000000	-0,002300
512,000000	-0,001800
511,000000	-0,006900
510,000000	-0,004600
509,000000	-0,003900
508,000000	-0,005600
507,000000	-0,002300
506,000000	-0,002400
505,000000	-0,004500
504,000000	-0,005200
503,000000	-0,003200
502,000000	-0,004300
501,000000	-0,001800
500,000000	-0,003100
499,000000	-0,005800
498,000000	-0,003000
497,000000	-0,004900
496,000000	-0,005300
495,000000	-0,001300
494,000000	-0,003400
493,000000	-0,005300
492,000000	-0,002800
491,000000	-0,004900
490,000000	-0,002200
489,000000	-0,001400
488,000000	-0,000900
487,000000	-0,006300
486,000000	-0,003300
485,000000	-0,004000
484,000000	-0,003700
483,000000	-0,002900
482,000000	-0,001400
481,000000	-0,004100
480,000000	-0,005600
479,000000	-0,004400
478,000000	-0,002700
477,000000	-0,001800
476,000000	-0,002800
475,000000	-0,003800
474,000000	-0,003200
473,000000	-0,005400
472,000000	-0,001200
471,000000	-0,002000
470,000000	-0,002800
469,000000	-0,002700
468,000000	-0,003800
467,000000	-0,004000
466,000000	-0,002300
465,000000	-0,000800
464,000000	-0,002000
463,000000	-0,002200
462,000000	-0,005400
461,000000	-0,003600
460,000000	-0,002500
459,000000	-0,002100
458,000000	-0,000900
457,000000	-0,003200
456,000000	-0,005000
455,000000	-0,004000
454,000000	-0,001400
453,000000	-0,001800
452,000000	-0,001600
451,000000	-0,002600
450,000000	-0,006800
449,000000	-0,005100
448,000000	-0,003000
447,000000	-0,001800
446,000000	-0,002600
445,000000	-0,003700
444,000000	-0,005400
443,000000	-0,005000
442,000000	-0,003100
441,000000	-0,001500
440,000000	-0,003100
439,000000	-0,004200
438,000000	-0,004900
437,000000	-0,002400
436,000000	-0,002700
435,000000	-0,001800
434,000000	-0,001400
433,000000	-0,004800
432,000000	-0,006200
431,000000	-0,002800
430,000000	-0,003000
429,000000	-0,002200
428,000000	-0,002800
427,000000	-0,004100
426,000000	-0,004500
425,000000	-0,003000
424,000000	-0,002800
423,000000	-0,003100
422,000000	-0,002100
421,000000	-0,004200
420,000000	-0,005700
419,000000	-0,004000
418,000000	-0,003400
417,000000	-0,000800
416,000000	-0,002400
415,000000	-0,004700
414,000000	-0,003200
413,000000	-0,004200
412,000000	-0,004900
411,000000	-0,001500
410,000000	-0,002300
409,000000	-0,004700
408,000000	-0,003800
407,000000	-0,004200
406,000000	-0,004300
405,000000	-0,002300
404,000000	-0,001400
403,000000	-0,002800
402,000000	-0,005300
401,000000	-0,005000
400,000000	-0,002100
399,000000	-0,001900
398,000000	-0,003600
397,000000	-0,002100
396,000000	-0,003900
395,000000	-0,004300
394,000000	-0,003100
393,000000	-0,003800
392,000000	-0,002700
391,000000	-0,003000
390,000000	-0,005000
389,000000	-0,005000
388,000000	-0,002700
387,000000	-0,001400
386,000000	-0,003000
385,000000	-0,003700
384,000000	-0,004000
383,000000	-0,003900
382,000000	-0,003300
381,000000	-0,002700
380,000000	-0,003700
379,000000	-0,004400
378,000000	-0,005300
377,000000	-0,005200
376,000000	-0,003100
375,000000	-0,004200
374,000000	-0,004000
373,000000	-0,003200
372,000000	-0,003200
371,000000	-0,004200
370,000000	-0,005100
369,000000	-0,005600
368,000000	-0,003200
367,000000	-0,004100
366,000000	-0,003700
365,000000	-0,003700
364,000000	-0,004900
363,000000	-0,005200
362,000000	-0,002800
361,000000	-0,003100
360,000000	-0,003400
359,000000	-0,003700
358,000000	-0,003900
357,000000	-0,006000
356,000000	-0,003700
355,000000	-0,002800
354,000000	-0,003600
353,000000	-0,005000
352,000000	-0,005700
351,000000	-0,005600
350,000000	-0,004600
