PE UV       SUBTECH     SPECTRUM    ASCII       PEDS        4.00        
   -1
Sample4795.Sample.asc
23/08/31
22:52:14.00
23/08/31
22:52:14.00
Analyst

350,000000
1
Lambda 850
850N4111301
PerkinElmer UV WinLab 6.4.0.971 / 1.61.00 Lambda 800

0
0
2
0
0
VIS
1
1
1
RBeamAtt,SBeamAtt,150mm sphere / downward view
0
0
0
0
Fix
 
0
0,2
0
30
0
 
 
 
0
 
0
150
0
Front
100
 
S:100 R:100
 
0
0
0
 
0
 
 
 
0
 
 
0
0
0
0
0
 
 
 
 
0
0


0
0
#HDR
-1
-1
#GR
nm
EGY
1.0
0.0
850,000000
-1,000000
501
8
0,041500
-0,007000
#DATA
850,000000	-0,003200
849,000000	-0,002100
848,000000	-0,003100
847,000000	-0,004700
846,000000	-0,007000
845,000000	-0,001300
844,000000	-0,001300
843,000000	-0,001300
842,000000	-0,001700
841,000000	-0,001400
840,000000	-0,003100
839,000000	0,000600
838,000000	0,000800
837,000000	-0,000800
836,000000	-0,001500
835,000000	0,000100
834,000000	-0,002000
833,000000	-0,002100
832,000000	0,000500
831,000000	0,000700
830,000000	-0,001600
829,000000	0,000100
828,000000	-0,000600
827,000000	-0,000300
826,000000	0,000300
825,000000	0,001000
824,000000	-0,000300
823,000000	-0,000000
822,000000	0,001100
821,000000	0,003300
820,000000	0,001000
819,000000	0,001100
818,000000	0,001500
817,000000	0,000800
816,000000	-0,000900
815,000000	0,001700
814,000000	0,003300
813,000000	0,001500
812,000000	0,001000
811,000000	0,001200
810,000000	-0,000700
809,000000	0,000700
808,000000	0,001000
807,000000	0,001500
806,000000	0,002300
805,000000	0,002400
804,000000	0,002100
803,000000	0,002800
802,000000	0,002800
801,000000	0,001400
800,000000	0,002400
799,000000	0,002600
798,000000	0,002400
797,000000	0,003800
796,000000	0,003400
795,000000	0,001100
794,000000	0,002700
793,000000	0,004500
792,000000	0,003200
791,000000	0,002700
790,000000	0,003300
789,000000	0,001900
788,000000	0,001300
787,000000	0,003300
786,000000	0,003400
785,000000	0,003200
784,000000	0,002700
783,000000	0,003600
782,000000	0,003000
781,000000	0,003400
780,000000	0,005000
779,000000	0,004400
778,000000	0,002800
777,000000	0,003000
776,000000	0,004000
775,000000	0,003200
774,000000	0,003800
773,000000	0,005000
772,000000	0,004200
771,000000	0,003400
770,000000	0,003700
769,000000	0,005000
768,000000	0,004600
767,000000	0,003700
766,000000	0,003400
765,000000	0,003100
764,000000	0,003500
763,000000	0,006200
762,000000	0,006100
761,000000	0,005300
760,000000	0,004900
759,000000	0,005300
758,000000	0,004200
757,000000	0,005600
756,000000	0,007100
755,000000	0,007100
754,000000	0,005700
753,000000	0,004900
752,000000	0,005600
751,000000	0,006400
750,000000	0,006000
749,000000	0,005400
748,000000	0,003900
747,000000	0,005400
746,000000	0,006600
745,000000	0,007200
744,000000	0,006500
743,000000	0,007400
742,000000	0,007200
741,000000	0,006000
740,000000	0,005500
739,000000	0,008200
738,000000	0,008300
737,000000	0,006500
736,000000	0,005700
735,000000	0,006600
734,000000	0,006500
733,000000	0,008400
732,000000	0,009100
731,000000	0,007300
730,000000	0,006400
729,000000	0,008100
728,000000	0,007900
727,000000	0,009300
726,000000	0,010300
725,000000	0,009100
724,000000	0,006900
723,000000	0,007700
722,000000	0,009300
721,000000	0,011100
720,000000	0,011300
719,000000	0,010800
718,000000	0,010100
717,000000	0,009500
716,000000	0,010300
715,000000	0,012100
714,000000	0,011900
713,000000	0,010700
712,000000	0,009900
711,000000	0,010100
710,000000	0,011600
709,000000	0,014300
708,000000	0,014300
707,000000	0,011100
706,000000	0,010400
705,000000	0,012000
704,000000	0,012600
703,000000	0,014000
702,000000	0,014500
701,000000	0,013000
700,000000	0,011500
699,000000	0,012400
698,000000	0,014500
697,000000	0,015500
696,000000	0,015800
695,000000	0,015200
694,000000	0,013300
693,000000	0,013000
692,000000	0,015600
691,000000	0,016700
690,000000	0,015100
689,000000	0,015200
688,000000	0,015900
687,000000	0,016200
686,000000	0,016600
685,000000	0,018500
684,000000	0,019900
683,000000	0,020100
682,000000	0,017500
681,000000	0,016600
680,000000	0,018000
679,000000	0,020100
678,000000	0,020800
677,000000	0,021000
676,000000	0,020100
675,000000	0,018800
674,000000	0,019400
673,000000	0,021500
672,000000	0,021900
671,000000	0,022900
670,000000	0,022100
669,000000	0,019800
668,000000	0,020400
667,000000	0,023300
666,000000	0,024600
665,000000	0,024000
664,000000	0,022900
663,000000	0,022200
662,000000	0,023000
661,000000	0,025200
660,000000	0,026400
659,000000	0,026600
658,000000	0,025000
657,000000	0,023700
656,000000	0,025700
655,000000	0,026100
654,000000	0,027200
653,000000	0,028300
652,000000	0,027900
651,000000	0,025700
650,000000	0,028800
649,000000	0,029500
648,000000	0,028700
647,000000	0,030100
646,000000	0,029400
645,000000	0,026600
644,000000	0,026100
643,000000	0,030300
642,000000	0,031100
641,000000	0,030900
640,000000	0,029700
639,000000	0,028900
638,000000	0,028100
637,000000	0,031300
636,000000	0,033300
635,000000	0,033200
634,000000	0,030500
633,000000	0,031900
632,000000	0,031400
631,000000	0,032100
630,000000	0,033400
629,000000	0,034400
628,000000	0,033700
627,000000	0,031700
626,000000	0,033100
625,000000	0,034500
624,000000	0,034800
623,000000	0,036000
622,000000	0,036100
621,000000	0,033000
620,000000	0,036100
619,000000	0,037000
618,000000	0,036000
617,000000	0,035600
616,000000	0,038300
615,000000	0,034900
614,000000	0,036300
613,000000	0,037600
612,000000	0,038100
611,000000	0,037600
610,000000	0,038400
609,000000	0,036700
608,000000	0,038300
607,000000	0,037300
606,000000	0,038500
605,000000	0,038200
604,000000	0,039200
603,000000	0,036400
602,000000	0,040400
601,000000	0,039100
600,000000	0,038900
599,000000	0,040500
598,000000	0,040500
597,000000	0,035400
596,000000	0,040100
595,000000	0,039800
594,000000	0,039500
593,000000	0,040500
592,000000	0,041500
591,000000	0,039500
590,000000	0,039100
589,000000	0,039400
588,000000	0,039400
587,000000	0,038700
586,000000	0,040600
585,000000	0,037500
584,000000	0,040100
583,000000	0,040000
582,000000	0,041100
581,000000	0,039900
580,000000	0,038200
579,000000	0,036700
578,000000	0,037800
577,000000	0,039000
576,000000	0,038900
575,000000	0,039800
574,000000	0,040500
573,000000	0,037200
572,000000	0,039200
571,000000	0,037200
570,000000	0,038000
569,000000	0,038500
568,000000	0,039600
567,000000	0,035500
566,000000	0,037200
565,000000	0,036300
564,000000	0,035300
563,000000	0,035000
562,000000	0,034400
561,000000	0,031900
560,000000	0,031600
559,000000	0,029300
558,000000	0,030800
557,000000	0,032700
556,000000	0,032600
555,000000	0,031000
554,000000	0,032200
553,000000	0,034700
552,000000	0,031500
551,000000	0,032000
550,000000	0,032700
549,000000	0,031200
548,000000	0,031300
547,000000	0,032200
546,000000	0,032400
545,000000	0,031000
544,000000	0,031900
543,000000	0,033000
542,000000	0,031200
541,000000	0,030200
540,000000	0,030800
539,000000	0,031000
538,000000	0,028900
537,000000	0,031600
536,000000	0,030800
535,000000	0,028700
534,000000	0,030600
533,000000	0,028900
532,000000	0,028500
531,000000	0,028500
530,000000	0,028700
529,000000	0,028100
528,000000	0,028600
527,000000	0,028400
526,000000	0,028600
525,000000	0,027300
524,000000	0,027200
523,000000	0,027500
522,000000	0,027400
521,000000	0,023600
520,000000	0,024100
519,000000	0,026700
518,000000	0,026200
517,000000	0,026200
516,000000	0,021900
515,000000	0,024800
514,000000	0,022600
513,000000	0,024700
512,000000	0,023600
511,000000	0,023200
510,000000	0,025600
509,000000	0,023400
508,000000	0,019800
507,000000	0,022800
506,000000	0,023900
505,000000	0,022400
504,000000	0,023400
503,000000	0,022100
502,000000	0,020500
501,000000	0,022600
500,000000	0,022800
499,000000	0,022500
498,000000	0,022300
497,000000	0,021300
496,000000	0,021500
495,000000	0,024500
494,000000	0,024700
493,000000	0,025800
492,000000	0,026600
491,000000	0,023300
490,000000	0,024000
489,000000	0,028100
488,000000	0,027900
487,000000	0,028700
486,000000	0,031000
485,000000	0,029300
484,000000	0,028400
483,000000	0,032000
482,000000	0,032000
481,000000	0,031200
480,000000	0,030100
479,000000	0,028900
478,000000	0,027400
477,000000	0,029600
476,000000	0,031200
475,000000	0,031000
474,000000	0,029400
473,000000	0,028900
472,000000	0,027800
471,000000	0,028400
470,000000	0,027700
469,000000	0,028700
468,000000	0,027500
467,000000	0,024400
466,000000	0,023800
465,000000	0,026900
464,000000	0,026600
463,000000	0,025300
462,000000	0,024500
461,000000	0,022300
460,000000	0,023600
459,000000	0,026000
458,000000	0,024600
457,000000	0,023300
456,000000	0,023100
455,000000	0,022400
454,000000	0,022200
453,000000	0,023100
452,000000	0,023300
451,000000	0,023000
450,000000	0,021300
449,000000	0,019800
448,000000	0,020900
447,000000	0,021800
446,000000	0,021500
445,000000	0,021500
444,000000	0,020100
443,000000	0,019900
442,000000	0,022100
441,000000	0,022800
440,000000	0,022200
439,000000	0,022700
438,000000	0,023100
437,000000	0,021100
436,000000	0,021300
435,000000	0,022500
434,000000	0,021900
433,000000	0,019900
432,000000	0,019100
431,000000	0,018100
430,000000	0,018600
429,000000	0,021200
428,000000	0,020700
427,000000	0,018400
426,000000	0,018200
425,000000	0,018300
424,000000	0,018800
423,000000	0,019700
422,000000	0,019200
421,000000	0,018300
420,000000	0,017000
419,000000	0,015800
418,000000	0,017600
417,000000	0,018300
416,000000	0,016100
415,000000	0,015400
414,000000	0,015100
413,000000	0,013500
412,000000	0,015000
411,000000	0,016800
410,000000	0,014800
409,000000	0,014300
408,000000	0,014600
407,000000	0,012500
406,000000	0,012700
405,000000	0,015000
404,000000	0,013600
403,000000	0,011100
402,000000	0,011100
401,000000	0,012100
400,000000	0,012500
399,000000	0,012300
398,000000	0,012200
397,000000	0,012000
396,000000	0,010600
395,000000	0,008900
394,000000	0,009200
393,000000	0,010000
392,000000	0,008800
391,000000	0,008400
390,000000	0,007500
389,000000	0,007200
388,000000	0,009400
387,000000	0,009800
386,000000	0,007000
385,000000	0,006200
384,000000	0,005900
383,000000	0,004500
382,000000	0,005400
381,000000	0,006800
380,000000	0,006600
379,000000	0,005600
378,000000	0,000100
377,000000	-0,004200
376,000000	-0,004000
375,000000	-0,002500
374,000000	-0,002300
373,000000	-0,001300
372,000000	-0,000000
371,000000	-0,003200
370,000000	-0,004300
369,000000	-0,001800
368,000000	-0,002200
367,000000	-0,001100
366,000000	0,000000
365,000000	-0,003300
364,000000	-0,004500
363,000000	-0,000700
362,000000	-0,001100
361,000000	-0,001800
360,000000	-0,000400
359,000000	-0,001000
358,000000	-0,002800
357,000000	-0,001700
356,000000	-0,001600
355,000000	-0,001300
354,000000	-0,001300
353,000000	-0,002200
352,000000	-0,003600
351,000000	-0,002300
350,000000	-0,001900
