PE UV       SUBTECH     SPECTRUM    ASCII       PEDS        4.00        
   -1
Sample4779.Sample.asc
23/08/24
02:57:58.00
23/08/24
02:57:58.00
Analyst

350,000000
1
Lambda 850
850N4111301
PerkinElmer UV WinLab 6.4.0.971 / 1.61.00 Lambda 800

0
0
2
0
0
VIS
1
1
1
RBeamAtt,SBeamAtt,150mm sphere / downward view
0
0
0
0
Fix
 
0
0,2
0
30
0
 
 
 
0
 
0
150
0
Front
100
 
S:100 R:100
 
0
0
0
 
0
 
 
 
0
 
 
0
0
0
0
0
 
 
 
 
0
0


0
0
#HDR
-1
-1
#GR
nm
EGY
1.0
0.0
800,000000
-1,000000
451
8
0,068300
-0,006600
#DATA
800,000000	0,016500
799,000000	0,014900
798,000000	0,015500
797,000000	0,019100
796,000000	0,017600
795,000000	0,015900
794,000000	0,017600
793,000000	0,017200
792,000000	0,018800
791,000000	0,016900
790,000000	0,018500
789,000000	0,018400
788,000000	0,018300
787,000000	0,018200
786,000000	0,019500
785,000000	0,017000
784,000000	0,019300
783,000000	0,019800
782,000000	0,018600
781,000000	0,019600
780,000000	0,020900
779,000000	0,019500
778,000000	0,020300
777,000000	0,021600
776,000000	0,021600
775,000000	0,021200
774,000000	0,020500
773,000000	0,021500
772,000000	0,022600
771,000000	0,021800
770,000000	0,022800
769,000000	0,022500
768,000000	0,021800
767,000000	0,024100
766,000000	0,024500
765,000000	0,022900
764,000000	0,024000
763,000000	0,025000
762,000000	0,023300
761,000000	0,022900
760,000000	0,025800
759,000000	0,025400
758,000000	0,025600
757,000000	0,025700
756,000000	0,025800
755,000000	0,024400
754,000000	0,026400
753,000000	0,028300
752,000000	0,027300
751,000000	0,027600
750,000000	0,029000
749,000000	0,028400
748,000000	0,028800
747,000000	0,030100
746,000000	0,030100
745,000000	0,028500
744,000000	0,027500
743,000000	0,030000
742,000000	0,031800
741,000000	0,030600
740,000000	0,030800
739,000000	0,031700
738,000000	0,030400
737,000000	0,031100
736,000000	0,033300
735,000000	0,032500
734,000000	0,033400
733,000000	0,035000
732,000000	0,033800
731,000000	0,033200
730,000000	0,035500
729,000000	0,036900
728,000000	0,036800
727,000000	0,035500
726,000000	0,036000
725,000000	0,035700
724,000000	0,036300
723,000000	0,036800
722,000000	0,036900
721,000000	0,036300
720,000000	0,036200
719,000000	0,036400
718,000000	0,038200
717,000000	0,038600
716,000000	0,039700
715,000000	0,038500
714,000000	0,036200
713,000000	0,036500
712,000000	0,039000
711,000000	0,036600
710,000000	0,034400
709,000000	0,034200
708,000000	0,033500
707,000000	0,032900
706,000000	0,032700
705,000000	0,031100
704,000000	0,029100
703,000000	0,026900
702,000000	0,025600
701,000000	0,024100
700,000000	0,022900
699,000000	0,021700
698,000000	0,020000
697,000000	0,016500
696,000000	0,014200
695,000000	0,013500
694,000000	0,012700
693,000000	0,011200
692,000000	0,010200
691,000000	0,007500
690,000000	0,007200
689,000000	0,006900
688,000000	0,006200
687,000000	0,006300
686,000000	0,006000
685,000000	0,007400
684,000000	0,009000
683,000000	0,007300
682,000000	0,004600
681,000000	0,005700
680,000000	0,006900
679,000000	0,007600
678,000000	0,008600
677,000000	0,007800
676,000000	0,005800
675,000000	0,006800
674,000000	0,008300
673,000000	0,009500
672,000000	0,008300
671,000000	0,008000
670,000000	0,007300
669,000000	0,007200
668,000000	0,007700
667,000000	0,010600
666,000000	0,010500
665,000000	0,008800
664,000000	0,009100
663,000000	0,010000
662,000000	0,010100
661,000000	0,012600
660,000000	0,013800
659,000000	0,012500
658,000000	0,011900
657,000000	0,013400
656,000000	0,015100
655,000000	0,016400
654,000000	0,017000
653,000000	0,015700
652,000000	0,013800
651,000000	0,015300
650,000000	0,018400
649,000000	0,019500
648,000000	0,019500
647,000000	0,018900
646,000000	0,018200
645,000000	0,019700
644,000000	0,022700
643,000000	0,025000
642,000000	0,026200
641,000000	0,026200
640,000000	0,026800
639,000000	0,027300
638,000000	0,029300
637,000000	0,032100
636,000000	0,031800
635,000000	0,029700
634,000000	0,028800
633,000000	0,030100
632,000000	0,031700
631,000000	0,032700
630,000000	0,033500
629,000000	0,032500
628,000000	0,030500
627,000000	0,031100
626,000000	0,034400
625,000000	0,035200
624,000000	0,035600
623,000000	0,035900
622,000000	0,033500
621,000000	0,033500
620,000000	0,036900
619,000000	0,037800
618,000000	0,037100
617,000000	0,037500
616,000000	0,036400
615,000000	0,038200
614,000000	0,039800
613,000000	0,040900
612,000000	0,041900
611,000000	0,042200
610,000000	0,041600
609,000000	0,043900
608,000000	0,044300
607,000000	0,045300
606,000000	0,047100
605,000000	0,046800
604,000000	0,045200
603,000000	0,048600
602,000000	0,049700
601,000000	0,049400
600,000000	0,050900
599,000000	0,051200
598,000000	0,048700
597,000000	0,049400
596,000000	0,051000
595,000000	0,051200
594,000000	0,051900
593,000000	0,053600
592,000000	0,051000
591,000000	0,052300
590,000000	0,054400
589,000000	0,054900
588,000000	0,055900
587,000000	0,056100
586,000000	0,054900
585,000000	0,057300
584,000000	0,057300
583,000000	0,058700
582,000000	0,059500
581,000000	0,059800
580,000000	0,057900
579,000000	0,061300
578,000000	0,060900
577,000000	0,061400
576,000000	0,063700
575,000000	0,064100
574,000000	0,061100
573,000000	0,064000
572,000000	0,064800
571,000000	0,065000
570,000000	0,066200
569,000000	0,068300
568,000000	0,066500
567,000000	0,066900
566,000000	0,067500
565,000000	0,067800
564,000000	0,066500
563,000000	0,067400
562,000000	0,063300
561,000000	0,062800
560,000000	0,064400
559,000000	0,061600
558,000000	0,064600
557,000000	0,064800
556,000000	0,064500
555,000000	0,064500
554,000000	0,066000
553,000000	0,062900
552,000000	0,063800
551,000000	0,064700
550,000000	0,065000
549,000000	0,064300
548,000000	0,065900
547,000000	0,063100
546,000000	0,063200
545,000000	0,062200
544,000000	0,064200
543,000000	0,063200
542,000000	0,061700
541,000000	0,060100
540,000000	0,060800
539,000000	0,059100
538,000000	0,058400
537,000000	0,058700
536,000000	0,057800
535,000000	0,054200
534,000000	0,056000
533,000000	0,053200
532,000000	0,052100
531,000000	0,053000
530,000000	0,051700
529,000000	0,045800
528,000000	0,047400
527,000000	0,045900
526,000000	0,044500
525,000000	0,042000
524,000000	0,039900
523,000000	0,037000
522,000000	0,036300
521,000000	0,032700
520,000000	0,032600
519,000000	0,030000
518,000000	0,027000
517,000000	0,027400
516,000000	0,024200
515,000000	0,022200
514,000000	0,022700
513,000000	0,021600
512,000000	0,018000
511,000000	0,016200
510,000000	0,017500
509,000000	0,014400
508,000000	0,013200
507,000000	0,013900
506,000000	0,012400
505,000000	0,010200
504,000000	0,011100
503,000000	0,011000
502,000000	0,010300
501,000000	0,009400
500,000000	0,009600
499,000000	0,010100
498,000000	0,008300
497,000000	0,009200
496,000000	0,010300
495,000000	0,008500
494,000000	0,008200
493,000000	0,011400
492,000000	0,008400
491,000000	0,004800
490,000000	0,009300
489,000000	0,009900
488,000000	0,009300
487,000000	0,011900
486,000000	0,009600
485,000000	0,009400
484,000000	0,011600
483,000000	0,012800
482,000000	0,011900
481,000000	0,013400
480,000000	0,011700
479,000000	0,010200
478,000000	0,011700
477,000000	0,012200
476,000000	0,013300
475,000000	0,013700
474,000000	0,009300
473,000000	0,010000
472,000000	0,011800
471,000000	0,011100
470,000000	0,011200
469,000000	0,010600
468,000000	0,009100
467,000000	0,007300
466,000000	0,010700
465,000000	0,010600
464,000000	0,009900
463,000000	0,012000
462,000000	0,009700
461,000000	0,006700
460,000000	0,010100
459,000000	0,011100
458,000000	0,008900
457,000000	0,007300
456,000000	0,009400
455,000000	0,008600
454,000000	0,008600
453,000000	0,008200
452,000000	0,008400
451,000000	0,008100
450,000000	0,006000
449,000000	0,005100
448,000000	0,007400
447,000000	0,006900
446,000000	0,008300
445,000000	0,008700
444,000000	0,006200
443,000000	0,005800
442,000000	0,008400
441,000000	0,006600
440,000000	0,006800
439,000000	0,009100
438,000000	0,007000
437,000000	0,003800
436,000000	0,006400
435,000000	0,007700
434,000000	0,006700
433,000000	0,005600
432,000000	0,005700
431,000000	0,004300
430,000000	0,006400
429,000000	0,007500
428,000000	0,006600
427,000000	0,004400
426,000000	0,003900
425,000000	0,004500
424,000000	0,006300
423,000000	0,006000
422,000000	0,006200
421,000000	0,005000
420,000000	0,002900
419,000000	0,004300
418,000000	0,005900
417,000000	0,004500
416,000000	0,003900
415,000000	0,003900
414,000000	0,001800
413,000000	0,003200
412,000000	0,005600
411,000000	0,004700
410,000000	0,003200
409,000000	0,003600
408,000000	0,003500
407,000000	0,003100
406,000000	0,004100
405,000000	0,004000
404,000000	0,002900
403,000000	0,001500
402,000000	0,001200
401,000000	0,003000
400,000000	0,003300
399,000000	0,002600
398,000000	0,002100
397,000000	0,001000
396,000000	0,000100
395,000000	0,001600
394,000000	0,002600
393,000000	0,000800
392,000000	0,000300
391,000000	0,001000
390,000000	0,000300
389,000000	0,001800
388,000000	0,002600
387,000000	0,001500
386,000000	-0,000300
385,000000	-0,000600
384,000000	-0,000800
383,000000	0,001100
382,000000	0,001700
381,000000	-0,000100
380,000000	-0,001600
379,000000	-0,001100
378,000000	-0,002900
377,000000	-0,006100
376,000000	-0,006600
375,000000	-0,005900
374,000000	-0,004600
373,000000	-0,002300
372,000000	-0,001700
371,000000	-0,003500
370,000000	-0,005200
369,000000	-0,005800
368,000000	-0,004500
367,000000	-0,001000
366,000000	-0,000600
365,000000	-0,003800
364,000000	-0,005900
363,000000	-0,004700
362,000000	-0,003700
361,000000	-0,002600
360,000000	-0,002100
359,000000	-0,003100
358,000000	-0,005900
357,000000	-0,003900
356,000000	-0,002400
355,000000	-0,002700
354,000000	-0,001700
353,000000	-0,003800
352,000000	-0,005800
351,000000	-0,003000
350,000000	-0,001900
