PE UV       SUBTECH     SPECTRUM    ASCII       PEDS        4.00        
   -1
Sample4783.Sample.asc
23/08/24
03:30:30.00
23/08/24
03:30:30.00
Analyst

350,000000
1
Lambda 850
850N4111301
PerkinElmer UV WinLab 6.4.0.971 / 1.61.00 Lambda 800

0
0
2
0
0
VIS
1
1
1
RBeamAtt,SBeamAtt,150mm sphere / downward view
0
0
0
0
Fix
 
0
0,2
0
0
0
 
 
 
0
 
0
150
0
Front
100
 
S:100 R:100
 
0
0
0
 
0
 
 
 
0
 
 
0
0
0
0
0
 
 
 
 
0
0


0
0
#HDR
-1
-1
#GR
nm
%T
1.0
0.0
800,000000
-1,000000
451
8
65,575013
2,087101
#DATA
800,000000	65,559632
799,000000	65,575013
798,000000	65,444469
797,000000	65,504300
796,000000	65,371693
795,000000	65,275351
794,000000	65,209595
793,000000	65,282548
792,000000	65,274972
791,000000	65,060293
790,000000	65,148607
789,000000	64,996725
788,000000	65,002084
787,000000	64,902381
786,000000	64,904631
785,000000	64,862715
784,000000	64,765428
783,000000	64,754990
782,000000	64,681561
781,000000	64,693743
780,000000	64,652728
779,000000	64,526842
778,000000	64,465389
777,000000	64,451155
776,000000	64,422768
775,000000	64,285873
774,000000	64,350392
773,000000	64,251662
772,000000	64,237560
771,000000	64,092968
770,000000	64,124905
769,000000	64,102537
768,000000	64,019303
767,000000	63,981961
766,000000	63,947391
765,000000	63,867935
764,000000	63,873723
763,000000	63,813337
762,000000	63,809616
761,000000	63,690717
760,000000	63,626772
759,000000	63,625669
758,000000	63,588143
757,000000	63,552119
756,000000	63,442383
755,000000	63,377644
754,000000	63,356814
753,000000	63,337683
752,000000	63,276225
751,000000	63,184418
750,000000	63,128591
749,000000	63,077894
748,000000	63,052875
747,000000	62,949042
746,000000	62,850783
745,000000	62,849631
744,000000	62,736609
743,000000	62,635905
742,000000	62,619758
741,000000	62,551132
740,000000	62,463140
739,000000	62,429737
738,000000	62,443880
737,000000	62,273771
736,000000	62,210954
735,000000	62,138993
734,000000	62,069472
733,000000	62,043202
732,000000	61,991986
731,000000	61,901406
730,000000	61,872631
729,000000	61,755870
728,000000	61,673610
727,000000	61,569797
726,000000	61,396659
725,000000	61,225783
724,000000	61,038226
723,000000	60,778454
722,000000	60,525413
721,000000	60,271363
720,000000	59,951801
719,000000	59,598032
718,000000	59,263858
717,000000	58,871036
716,000000	58,403462
715,000000	57,887242
714,000000	57,278677
713,000000	56,639404
712,000000	55,988292
711,000000	55,218373
710,000000	54,366292
709,000000	53,489943
708,000000	52,508577
707,000000	51,404791
706,000000	50,175656
705,000000	48,907571
704,000000	47,500279
703,000000	45,959870
702,000000	44,332602
701,000000	42,555304
700,000000	40,646273
699,000000	38,578076
698,000000	36,366562
697,000000	34,065269
696,000000	31,640647
695,000000	29,146447
694,000000	26,609029
693,000000	24,004338
692,000000	21,405322
691,000000	18,929246
690,000000	16,594731
689,000000	14,441035
688,000000	12,581896
687,000000	10,968694
686,000000	9,647859
685,000000	8,623627
684,000000	7,868256
683,000000	7,340321
682,000000	7,016536
681,000000	6,850013
680,000000	6,781608
679,000000	6,784873
678,000000	6,823023
677,000000	6,856824
676,000000	6,902187
675,000000	6,949276
674,000000	7,012276
673,000000	7,114921
672,000000	7,276115
671,000000	7,512744
670,000000	7,833559
669,000000	8,249029
668,000000	8,774851
667,000000	9,399072
666,000000	10,112745
665,000000	10,907854
664,000000	11,786979
663,000000	12,732203
662,000000	13,694366
661,000000	14,660392
660,000000	15,594962
659,000000	16,438317
658,000000	17,164203
657,000000	17,753855
656,000000	18,218730
655,000000	18,587846
654,000000	18,868997
653,000000	19,097488
652,000000	19,359922
651,000000	19,720905
650,000000	20,215798
649,000000	20,866125
648,000000	21,662962
647,000000	22,554151
646,000000	23,509051
645,000000	24,510099
644,000000	25,500285
643,000000	26,457459
642,000000	27,336346
641,000000	28,102139
640,000000	28,770433
639,000000	29,310611
638,000000	29,729003
637,000000	30,037768
636,000000	30,242568
635,000000	30,348027
634,000000	30,391156
633,000000	30,388897
632,000000	30,333369
631,000000	30,296001
630,000000	30,277821
629,000000	30,249103
628,000000	30,233676
627,000000	30,255932
626,000000	30,304253
625,000000	30,359649
624,000000	30,422315
623,000000	30,509840
622,000000	30,627964
621,000000	30,768190
620,000000	30,947046
619,000000	31,140518
618,000000	31,375100
617,000000	31,623125
616,000000	31,887062
615,000000	32,182386
614,000000	32,488037
613,000000	32,775150
612,000000	33,072822
611,000000	33,360308
610,000000	33,656625
609,000000	33,950196
608,000000	34,238504
607,000000	34,492823
606,000000	34,763651
605,000000	35,031978
604,000000	35,278066
603,000000	35,501754
602,000000	35,703495
601,000000	35,866903
600,000000	36,041611
599,000000	36,181310
598,000000	36,307261
597,000000	36,435884
596,000000	36,530993
595,000000	36,647864
594,000000	36,746088
593,000000	36,864627
592,000000	36,990344
591,000000	37,156916
590,000000	37,338781
589,000000	37,504386
588,000000	37,700347
587,000000	37,915087
586,000000	38,132078
585,000000	38,368367
584,000000	38,579118
583,000000	38,808652
582,000000	39,037614
581,000000	39,283951
580,000000	39,518559
579,000000	39,776785
578,000000	40,047189
577,000000	40,340266
576,000000	40,658350
575,000000	40,959776
574,000000	41,291684
573,000000	41,645012
572,000000	41,998802
571,000000	42,353879
570,000000	42,734272
569,000000	43,095637
568,000000	43,466676
567,000000	43,775069
566,000000	44,090580
565,000000	44,401627
564,000000	44,633437
563,000000	44,877796
562,000000	45,056514
561,000000	45,278184
560,000000	45,410541
559,000000	45,506822
558,000000	45,603415
557,000000	45,627568
556,000000	45,642206
555,000000	45,638922
554,000000	45,641697
553,000000	45,613735
552,000000	45,501495
551,000000	45,443661
550,000000	45,360529
549,000000	45,303064
548,000000	45,199973
547,000000	45,083976
546,000000	44,982104
545,000000	44,837542
544,000000	44,727964
543,000000	44,628419
542,000000	44,473535
541,000000	44,293985
540,000000	44,142312
539,000000	43,970451
538,000000	43,807167
537,000000	43,610454
536,000000	43,368187
535,000000	43,132157
534,000000	42,822140
533,000000	42,494119
532,000000	42,162028
531,000000	41,766899
530,000000	41,337153
529,000000	40,841549
528,000000	40,306734
527,000000	39,724601
526,000000	39,063064
525,000000	38,345265
524,000000	37,579060
523,000000	36,746946
522,000000	35,809372
521,000000	34,798660
520,000000	33,766251
519,000000	32,665171
518,000000	31,521343
517,000000	30,338052
516,000000	29,145863
515,000000	27,889164
514,000000	26,606194
513,000000	25,332331
512,000000	24,051458
511,000000	22,791561
510,000000	21,496190
509,000000	20,280487
508,000000	19,112397
507,000000	17,943905
506,000000	16,883257
505,000000	15,837506
504,000000	14,849308
503,000000	13,895200
502,000000	13,026274
501,000000	12,195980
500,000000	11,426678
499,000000	10,721504
498,000000	10,057493
497,000000	9,475869
496,000000	8,946014
495,000000	8,451852
494,000000	8,013391
493,000000	7,608969
492,000000	7,236567
491,000000	6,899534
490,000000	6,628247
489,000000	6,388032
488,000000	6,183749
487,000000	6,020098
486,000000	5,877095
485,000000	5,778795
484,000000	5,703824
483,000000	5,651133
482,000000	5,615783
481,000000	5,603288
480,000000	5,591172
479,000000	5,590273
478,000000	5,589254
477,000000	5,580594
476,000000	5,566491
475,000000	5,567772
474,000000	5,557215
473,000000	5,557413
472,000000	5,545399
471,000000	5,539721
470,000000	5,543035
469,000000	5,542999
468,000000	5,531108
467,000000	5,521790
466,000000	5,510434
465,000000	5,495389
464,000000	5,469191
463,000000	5,432112
462,000000	5,375433
461,000000	5,329639
460,000000	5,272408
459,000000	5,190353
458,000000	5,096825
457,000000	4,980505
456,000000	4,856613
455,000000	4,709028
454,000000	4,534156
453,000000	4,343266
452,000000	4,135780
451,000000	3,916377
450,000000	3,683247
449,000000	3,449643
448,000000	3,229008
447,000000	3,016818
446,000000	2,825012
445,000000	2,654608
444,000000	2,503474
443,000000	2,380143
442,000000	2,282434
441,000000	2,210175
440,000000	2,158124
439,000000	2,122265
438,000000	2,095278
437,000000	2,087101
436,000000	2,092024
435,000000	2,118021
434,000000	2,138978
433,000000	2,185498
432,000000	2,232543
431,000000	2,301303
430,000000	2,365516
429,000000	2,435199
428,000000	2,508886
427,000000	2,584752
426,000000	2,649637
425,000000	2,713779
424,000000	2,771896
423,000000	2,833436
422,000000	2,885766
421,000000	2,933233
420,000000	2,992572
419,000000	3,046376
418,000000	3,113002
417,000000	3,182977
416,000000	3,257894
415,000000	3,347468
414,000000	3,456966
413,000000	3,572698
412,000000	3,701287
411,000000	3,857709
410,000000	4,009466
409,000000	4,177739
408,000000	4,357919
407,000000	4,548182
406,000000	4,746475
405,000000	4,941978
404,000000	5,136361
403,000000	5,334685
402,000000	5,508014
401,000000	5,692741
400,000000	5,856319
399,000000	5,998107
398,000000	6,124929
397,000000	6,232632
396,000000	6,322847
395,000000	6,412071
394,000000	6,474305
393,000000	6,539729
392,000000	6,591419
391,000000	6,635122
390,000000	6,690467
389,000000	6,729056
388,000000	6,761938
387,000000	6,793154
386,000000	6,833571
385,000000	6,876437
384,000000	6,923141
383,000000	6,985575
382,000000	7,055086
381,000000	7,140754
380,000000	7,250147
379,000000	7,353116
378,000000	7,469991
377,000000	7,563682
376,000000	7,639338
375,000000	7,812000
374,000000	8,015235
373,000000	8,198496
372,000000	8,378880
371,000000	8,583262
370,000000	8,759498
369,000000	8,918051
368,000000	9,080639
367,000000	9,252161
366,000000	9,397077
365,000000	9,496376
364,000000	9,635200
363,000000	9,783883
362,000000	9,909177
361,000000	10,019220
360,000000	10,108143
359,000000	10,215711
358,000000	10,285109
357,000000	10,329619
356,000000	10,383071
355,000000	10,390160
354,000000	10,396454
353,000000	10,392578
352,000000	10,345026
351,000000	10,218969
350,000000	10,088417
