PE UV       SUBTECH     SPECTRUM    ASCII       PEDS        4.00        
   -1
Sample4771.Sample.asc
23/08/24
02:10:31.00
23/08/24
02:10:31.00
Analyst

350,000000
1
Lambda 850
850N4111301
PerkinElmer UV WinLab 6.4.0.971 / 1.61.00 Lambda 800

0
0
2
0
0
VIS
1
1
1
RBeamAtt,SBeamAtt,150mm sphere / downward view
0
0
0
0
Fix
 
0
0,2
0
30
0
 
 
 
0
 
0
150
0
Front
100
 
S:100 R:100
 
0
0
0
 
0
 
 
 
0
 
 
0
0
0
0
0
 
 
 
 
0
0


0
0
#HDR
-1
-1
#GR
nm
EGY
1.0
0.0
800,000000
-1,000000
451
8
0,485100
0,008700
#DATA
800,000000	0,060500
799,000000	0,061800
798,000000	0,062100
797,000000	0,064100
796,000000	0,063000
795,000000	0,063800
794,000000	0,065700
793,000000	0,064600
792,000000	0,063600
791,000000	0,066900
790,000000	0,068800
789,000000	0,067500
788,000000	0,070000
787,000000	0,070800
786,000000	0,069100
785,000000	0,068600
784,000000	0,073000
783,000000	0,073800
782,000000	0,073400
781,000000	0,076600
780,000000	0,074200
779,000000	0,075000
778,000000	0,079300
777,000000	0,079300
776,000000	0,080600
775,000000	0,081500
774,000000	0,080000
773,000000	0,080700
772,000000	0,082600
771,000000	0,084000
770,000000	0,086600
769,000000	0,085400
768,000000	0,084600
767,000000	0,086900
766,000000	0,089000
765,000000	0,089000
764,000000	0,091300
763,000000	0,090000
762,000000	0,090200
761,000000	0,091100
760,000000	0,095200
759,000000	0,096200
758,000000	0,098100
757,000000	0,098900
756,000000	0,097800
755,000000	0,098200
754,000000	0,102800
753,000000	0,104100
752,000000	0,104200
751,000000	0,104500
750,000000	0,104200
749,000000	0,105700
748,000000	0,108200
747,000000	0,111500
746,000000	0,111500
745,000000	0,112000
744,000000	0,112000
743,000000	0,114600
742,000000	0,116400
741,000000	0,119500
740,000000	0,120900
739,000000	0,120700
738,000000	0,119500
737,000000	0,123300
736,000000	0,126100
735,000000	0,126400
734,000000	0,128500
733,000000	0,129400
732,000000	0,129500
731,000000	0,131700
730,000000	0,135900
729,000000	0,136800
728,000000	0,138700
727,000000	0,140500
726,000000	0,139700
725,000000	0,142000
724,000000	0,145700
723,000000	0,148500
722,000000	0,149400
721,000000	0,149700
720,000000	0,150600
719,000000	0,153400
718,000000	0,156700
717,000000	0,159300
716,000000	0,161900
715,000000	0,162500
714,000000	0,163700
713,000000	0,167200
712,000000	0,170100
711,000000	0,171500
710,000000	0,173900
709,000000	0,174600
708,000000	0,173900
707,000000	0,178000
706,000000	0,181400
705,000000	0,182800
704,000000	0,184200
703,000000	0,186300
702,000000	0,186500
701,000000	0,189100
700,000000	0,192200
699,000000	0,195000
698,000000	0,196100
697,000000	0,196200
696,000000	0,197800
695,000000	0,199300
694,000000	0,203100
693,000000	0,206700
692,000000	0,207600
691,000000	0,207200
690,000000	0,212800
689,000000	0,224100
688,000000	0,227400
687,000000	0,228100
686,000000	0,233500
685,000000	0,238600
684,000000	0,241500
683,000000	0,244700
682,000000	0,247700
681,000000	0,250200
680,000000	0,254100
679,000000	0,258400
678,000000	0,262300
677,000000	0,264200
676,000000	0,265500
675,000000	0,267900
674,000000	0,272300
673,000000	0,275800
672,000000	0,279000
671,000000	0,281800
670,000000	0,283400
669,000000	0,285800
668,000000	0,291200
667,000000	0,295000
666,000000	0,296300
665,000000	0,300500
664,000000	0,303000
663,000000	0,304100
662,000000	0,308800
661,000000	0,312600
660,000000	0,315000
659,000000	0,317700
658,000000	0,319900
657,000000	0,322200
656,000000	0,326100
655,000000	0,330400
654,000000	0,334000
653,000000	0,336700
652,000000	0,338100
651,000000	0,341600
650,000000	0,346000
649,000000	0,348900
648,000000	0,353000
647,000000	0,356100
646,000000	0,356100
645,000000	0,358500
644,000000	0,364100
643,000000	0,367500
642,000000	0,370200
641,000000	0,373500
640,000000	0,375200
639,000000	0,376600
638,000000	0,381000
637,000000	0,385300
636,000000	0,387900
635,000000	0,391200
634,000000	0,393700
633,000000	0,394700
632,000000	0,397900
631,000000	0,403100
630,000000	0,406000
629,000000	0,407400
628,000000	0,408800
627,000000	0,411600
626,000000	0,415700
625,000000	0,418900
624,000000	0,422200
623,000000	0,424700
622,000000	0,424900
621,000000	0,427300
620,000000	0,431500
619,000000	0,434000
618,000000	0,437000
617,000000	0,439900
616,000000	0,439700
615,000000	0,441800
614,000000	0,446100
613,000000	0,449100
612,000000	0,450200
611,000000	0,452500
610,000000	0,453400
609,000000	0,454300
608,000000	0,456800
607,000000	0,460400
606,000000	0,462100
605,000000	0,462400
604,000000	0,464100
603,000000	0,464800
602,000000	0,467300
601,000000	0,470500
600,000000	0,472100
599,000000	0,472900
598,000000	0,472000
597,000000	0,474600
596,000000	0,476600
595,000000	0,477600
594,000000	0,479100
593,000000	0,480000
592,000000	0,478300
591,000000	0,478000
590,000000	0,481000
589,000000	0,481700
588,000000	0,482400
587,000000	0,483100
586,000000	0,480700
585,000000	0,481000
584,000000	0,484400
583,000000	0,485100
582,000000	0,483600
581,000000	0,483300
580,000000	0,482000
579,000000	0,480300
578,000000	0,480700
577,000000	0,481000
576,000000	0,480900
575,000000	0,478300
574,000000	0,474600
573,000000	0,472700
572,000000	0,472600
571,000000	0,469800
570,000000	0,468100
569,000000	0,464600
568,000000	0,458000
567,000000	0,454600
566,000000	0,452500
565,000000	0,447000
564,000000	0,440700
563,000000	0,435400
562,000000	0,425400
561,000000	0,404200
560,000000	0,401100
559,000000	0,400700
558,000000	0,403400
557,000000	0,404100
556,000000	0,406000
555,000000	0,407400
554,000000	0,407400
553,000000	0,404600
552,000000	0,405900
551,000000	0,407200
550,000000	0,406100
549,000000	0,406000
548,000000	0,405100
547,000000	0,402200
546,000000	0,401200
545,000000	0,402500
544,000000	0,401000
543,000000	0,398600
542,000000	0,398000
541,000000	0,393800
540,000000	0,391500
539,000000	0,390500
538,000000	0,389400
537,000000	0,386200
536,000000	0,381500
535,000000	0,377200
534,000000	0,376000
533,000000	0,372600
532,000000	0,369700
531,000000	0,366700
530,000000	0,363000
529,000000	0,354900
528,000000	0,353700
527,000000	0,350400
526,000000	0,346700
525,000000	0,344200
524,000000	0,340200
523,000000	0,332700
522,000000	0,328500
521,000000	0,327700
520,000000	0,324100
519,000000	0,317600
518,000000	0,314800
517,000000	0,309200
516,000000	0,304300
515,000000	0,302600
514,000000	0,298800
513,000000	0,294900
512,000000	0,291200
511,000000	0,286300
510,000000	0,284000
509,000000	0,281700
508,000000	0,279700
507,000000	0,278000
506,000000	0,273300
505,000000	0,269600
504,000000	0,270900
503,000000	0,269100
502,000000	0,267700
501,000000	0,269000
500,000000	0,268300
499,000000	0,265200
498,000000	0,267500
497,000000	0,269700
496,000000	0,272800
495,000000	0,274000
494,000000	0,278000
493,000000	0,278700
492,000000	0,284900
491,000000	0,292500
490,000000	0,299000
489,000000	0,303400
488,000000	0,310900
487,000000	0,319500
486,000000	0,326600
485,000000	0,337600
484,000000	0,348200
483,000000	0,358700
482,000000	0,364300
481,000000	0,365000
480,000000	0,365100
479,000000	0,362900
478,000000	0,359000
477,000000	0,357000
476,000000	0,354400
475,000000	0,348600
474,000000	0,348500
473,000000	0,348500
472,000000	0,343500
471,000000	0,341300
470,000000	0,339600
469,000000	0,331700
468,000000	0,330100
467,000000	0,329000
466,000000	0,324400
465,000000	0,320800
464,000000	0,316200
463,000000	0,311600
462,000000	0,308000
461,000000	0,305700
460,000000	0,303100
459,000000	0,298500
458,000000	0,294400
457,000000	0,291100
456,000000	0,289000
455,000000	0,286200
454,000000	0,284900
453,000000	0,282600
452,000000	0,277700
451,000000	0,273500
450,000000	0,272800
449,000000	0,271500
448,000000	0,268600
447,000000	0,266400
446,000000	0,264300
445,000000	0,261600
444,000000	0,262900
443,000000	0,265300
442,000000	0,264500
441,000000	0,263900
440,000000	0,264300
439,000000	0,260400
438,000000	0,259000
437,000000	0,259900
436,000000	0,258900
435,000000	0,256300
434,000000	0,253600
433,000000	0,251600
432,000000	0,251000
431,000000	0,249300
430,000000	0,247400
429,000000	0,246700
428,000000	0,242900
427,000000	0,238900
426,000000	0,240100
425,000000	0,237800
424,000000	0,235100
423,000000	0,234300
422,000000	0,231100
421,000000	0,226100
420,000000	0,225900
419,000000	0,225400
418,000000	0,221300
417,000000	0,217900
416,000000	0,215800
415,000000	0,211800
414,000000	0,209600
413,000000	0,207800
412,000000	0,204300
411,000000	0,200500
410,000000	0,197300
409,000000	0,192300
408,000000	0,189200
407,000000	0,186900
406,000000	0,184500
405,000000	0,180300
404,000000	0,175500
403,000000	0,171000
402,000000	0,168300
401,000000	0,165300
400,000000	0,161100
399,000000	0,158900
398,000000	0,154300
397,000000	0,149100
396,000000	0,146700
395,000000	0,144600
394,000000	0,140800
393,000000	0,138300
392,000000	0,134300
391,000000	0,130000
390,000000	0,128200
389,000000	0,126700
388,000000	0,123000
387,000000	0,119200
386,000000	0,117000
385,000000	0,114700
384,000000	0,112300
383,000000	0,109500
382,000000	0,107500
381,000000	0,104700
380,000000	0,101600
379,000000	0,097400
378,000000	0,061500
377,000000	0,008900
376,000000	0,008700
375,000000	0,009200
374,000000	0,012800
373,000000	0,014600
372,000000	0,015100
371,000000	0,015800
370,000000	0,015400
369,000000	0,014500
368,000000	0,016300
367,000000	0,017500
366,000000	0,016700
365,000000	0,017200
364,000000	0,016600
363,000000	0,015200
362,000000	0,015600
361,000000	0,017200
360,000000	0,017400
359,000000	0,015700
358,000000	0,014000
357,000000	0,014300
356,000000	0,014700
355,000000	0,014300
354,000000	0,014800
353,000000	0,014100
352,000000	0,011800
351,000000	0,011000
350,000000	0,012100
